date,EOG_Open,EOG_High,EOG_Low,EOG_Close,EOG_Volume,EOG_Dividends,EOG_Stock Splits
1989-10-04 00:00:00+00:00,2.46875,2.546875,2.4375,1.6505521535873413,20636000,0.0,
1989-10-05 00:00:00+00:00,2.515625,2.625,2.5,1.7021329402923584,6453600,0.0,
1989-10-06 00:00:00+00:00,2.59375,2.625,2.546875,1.6815012693405151,2755200,0.0,
1989-10-09 00:00:00+00:00,2.546875,2.546875,2.5,1.6815012693405151,1084000,0.0,
1989-10-10 00:00:00+00:00,2.5625,2.5625,2.5,1.6711851358413696,1493600,0.0,
1989-10-11 00:00:00+00:00,2.5,2.515625,2.46875,1.660868525505066,1260000,0.0,
1989-10-12 00:00:00+00:00,2.515625,2.546875,2.515625,1.6711851358413696,602400,0.0,
1989-10-13 00:00:00+00:00,2.53125,2.53125,2.46875,1.6402363777160645,3970400,0.0,
1989-10-16 00:00:00+00:00,2.375,2.46875,2.375,1.6299201250076294,3924800,0.0,
1989-10-17 00:00:00+00:00,2.4375,2.5,2.4375,1.6505521535873413,1843200,0.0,
1989-10-18 00:00:00+00:00,2.5,2.5625,2.484375,1.6815012693405151,1128000,0.0,
1989-10-19 00:00:00+00:00,2.53125,2.546875,2.53125,1.6815012693405151,1040000,0.0,
1989-10-20 00:00:00+00:00,2.53125,2.53125,2.515625,1.6711851358413696,237600,0.0,
1989-10-23 00:00:00+00:00,2.546875,2.5625,2.546875,1.6815012693405151,87200,0.0,
1989-10-24 00:00:00+00:00,2.546875,2.5625,2.53125,1.6918150186538696,689600,0.0,
1989-10-25 00:00:00+00:00,2.546875,2.578125,2.515625,1.6815012693405151,608000,0.0,
1989-10-26 00:00:00+00:00,2.546875,2.5625,2.546875,1.6815012693405151,228800,0.0,
1989-10-27 00:00:00+00:00,2.546875,2.546875,2.5,1.660868525505066,456000,0.0,
1989-10-30 00:00:00+00:00,2.515625,2.515625,2.5,1.6505521535873413,250400,0.0,
1989-10-31 00:00:00+00:00,2.5,2.515625,2.5,1.6505521535873413,424800,0.0,
1989-11-01 00:00:00+00:00,2.515625,2.5625,2.515625,1.6918150186538696,715200,0.0,
1989-11-02 00:00:00+00:00,2.59375,2.640625,2.59375,1.7433959245681765,130400,0.0,
1989-11-03 00:00:00+00:00,2.625,2.75,2.625,1.8052914142608645,1118400,0.0,
1989-11-06 00:00:00+00:00,2.71875,2.71875,2.578125,1.7021329402923584,264800,0.0,
1989-11-07 00:00:00+00:00,2.546875,2.6875,2.5,1.7743431329727173,727200,0.0,
1989-11-08 00:00:00+00:00,2.6875,2.71875,2.671875,1.794974684715271,236800,0.0,
1989-11-09 00:00:00+00:00,2.71875,2.71875,2.6875,1.7743431329727173,60800,0.0,
1989-11-10 00:00:00+00:00,2.6875,2.6875,2.546875,1.6918150186538696,210400,0.0,
1989-11-13 00:00:00+00:00,2.5625,2.5625,2.515625,1.6815012693405151,92800,0.0,
1989-11-14 00:00:00+00:00,2.578125,2.578125,2.484375,1.6711851358413696,428000,0.0,
1989-11-15 00:00:00+00:00,2.546875,2.578125,2.53125,1.6918150186538696,176000,0.0,
1989-11-16 00:00:00+00:00,2.546875,2.59375,2.546875,1.7124489545822144,301600,0.0,
1989-11-17 00:00:00+00:00,2.59375,2.640625,2.59375,1.7433959245681765,249600,0.0,
1989-11-20 00:00:00+00:00,2.65625,2.65625,2.609375,1.7227643728256226,43200,0.0,
1989-11-21 00:00:00+00:00,2.59375,2.671875,2.59375,1.7640278339385986,108800,0.0,
1989-11-22 00:00:00+00:00,2.6875,2.75,2.6875,1.8156075477600095,255200,0.0,
1989-11-24 00:00:00+00:00,2.78125,2.953125,2.78125,1.929083108901977,572000,0.0,
1989-11-27 00:00:00+00:00,2.90625,2.9375,2.859375,1.89813494682312,253600,0.0,
1989-11-28 00:00:00+00:00,2.875,2.875,2.828125,1.8671884536743164,560000,0.0,
1989-11-29 00:00:00+00:00,2.8125,2.8125,2.78125,1.8465553522109983,60800,0.0,
1989-11-30 00:00:00+00:00,2.8125,2.90625,2.8125,1.9084513187408447,712800,0.0,
1989-12-01 00:00:00+00:00,2.890625,2.953125,2.890625,1.918767333030701,356800,0.0,
1989-12-04 00:00:00+00:00,2.9375,2.984375,2.875,1.9703463315963743,172000,0.0,
1989-12-05 00:00:00+00:00,2.953125,2.984375,2.90625,1.918767333030701,93600,0.0,
1989-12-06 00:00:00+00:00,2.90625,3.0,2.90625,1.9703463315963743,668800,0.0,
1989-12-07 00:00:00+00:00,2.984375,2.984375,2.921875,1.9497153759002688,215200,0.0,
1989-12-08 00:00:00+00:00,2.921875,2.953125,2.921875,1.9497153759002688,122400,0.0,
1989-12-11 00:00:00+00:00,2.96875,3.03125,2.9375,1.9806632995605469,306400,0.0,
1989-12-12 00:00:00+00:00,3.015625,3.03125,2.984375,1.9909793138504028,1119200,0.0,
1989-12-13 00:00:00+00:00,3.0,3.15625,2.984375,2.0838215351104736,400000,0.0,
1989-12-14 00:00:00+00:00,3.125,3.140625,3.109375,2.0631909370422363,391200,0.0,
1989-12-15 00:00:00+00:00,3.140625,3.140625,3.09375,2.052874803543091,155200,0.0,
1989-12-18 00:00:00+00:00,3.078125,3.125,3.03125,2.0012943744659424,224000,0.0,
1989-12-19 00:00:00+00:00,3.03125,3.0625,3.03125,2.021926164627075,215200,0.0,
1989-12-20 00:00:00+00:00,3.0625,3.109375,3.046875,2.032242774963379,166400,0.0,
1989-12-21 00:00:00+00:00,3.109375,3.125,3.0625,2.052874803543091,174400,0.0,
1989-12-22 00:00:00+00:00,3.125,3.125,3.109375,2.0631909370422363,173600,0.0,
1989-12-26 00:00:00+00:00,3.109375,3.109375,3.078125,2.032242774963379,97600,0.0,
1989-12-27 00:00:00+00:00,3.0625,3.0625,3.03125,2.0012943744659424,144000,0.0,
1989-12-28 00:00:00+00:00,3.046875,3.046875,3.03125,2.0012943744659424,11200,0.0,
1989-12-29 00:00:00+00:00,3.03125,3.15625,3.015625,2.0838215351104736,219200,0.0,
1990-01-02 00:00:00+00:00,3.125,3.125,3.03125,2.011610746383667,194400,0.0,
1990-01-03 00:00:00+00:00,3.0625,3.0625,3.03125,2.0012943744659424,361600,0.0,
1990-01-04 00:00:00+00:00,3.03125,3.0625,2.953125,1.9497153759002688,166400,0.0,
1990-01-05 00:00:00+00:00,2.9375,2.9375,2.859375,1.918767333030701,100800,0.0,
1990-01-08 00:00:00+00:00,2.875,2.890625,2.84375,1.8878185749053955,880800,0.0,
1990-01-09 00:00:00+00:00,2.828125,2.84375,2.8125,1.8568713665008545,282400,0.0,
1990-01-10 00:00:00+00:00,2.765625,2.765625,2.6875,1.7886344194412231,784000,0.00625,
1990-01-11 00:00:00+00:00,2.71875,2.765625,2.703125,1.819651484489441,347200,0.0,
1990-01-12 00:00:00+00:00,2.71875,2.734375,2.6875,1.798973798751831,159200,0.0,
1990-01-15 00:00:00+00:00,2.734375,2.734375,2.71875,1.798973798751831,25600,0.0,
1990-01-16 00:00:00+00:00,2.6875,2.703125,2.625,1.7886344194412231,172800,0.0,
1990-01-17 00:00:00+00:00,2.71875,2.8125,2.71875,1.798973798751831,216000,0.0,
1990-01-18 00:00:00+00:00,2.6875,2.71875,2.6875,1.7886344194412231,157600,0.0,
1990-01-19 00:00:00+00:00,2.734375,2.75,2.734375,1.819651484489441,8800,0.0,
1990-01-22 00:00:00+00:00,2.734375,2.75,2.71875,1.809311866760254,56800,0.0,
1990-01-23 00:00:00+00:00,2.765625,2.765625,2.734375,1.819651484489441,101600,0.0,
1990-01-24 00:00:00+00:00,2.734375,2.734375,2.6875,1.778295397758484,26400,0.0,
1990-01-25 00:00:00+00:00,2.6875,2.71875,2.671875,1.798973798751831,249600,0.0,
1990-01-26 00:00:00+00:00,2.703125,2.71875,2.671875,1.767957091331482,45600,0.0,
1990-01-29 00:00:00+00:00,2.6875,2.6875,2.625,1.7472795248031616,444000,0.0,
1990-01-30 00:00:00+00:00,2.625,2.65625,2.578125,1.757618069648743,548000,0.0,
1990-01-31 00:00:00+00:00,2.6875,2.859375,2.6875,1.89202344417572,757600,0.0,
1990-02-01 00:00:00+00:00,2.875,2.875,2.84375,1.89202344417572,149600,0.0,
1990-02-02 00:00:00+00:00,2.875,2.90625,2.875,1.9023630619049072,720000,0.0,
1990-02-05 00:00:00+00:00,2.90625,2.90625,2.875,1.9023630619049072,163200,0.0,
1990-02-06 00:00:00+00:00,2.875,2.90625,2.84375,1.912702560424805,99200,0.0,
1990-02-07 00:00:00+00:00,2.90625,2.9375,2.90625,1.9437191486358645,32800,0.0,
1990-02-08 00:00:00+00:00,2.96875,3.125,2.96875,2.01609206199646,346400,0.0,
1990-02-09 00:00:00+00:00,3.078125,3.125,2.96875,1.985073685646057,179200,0.0,
1990-02-12 00:00:00+00:00,3.0,3.0,2.90625,1.9230401515960691,28000,0.0,
1990-02-13 00:00:00+00:00,2.9375,2.953125,2.9375,1.9540581703186035,26400,0.0,
1990-02-14 00:00:00+00:00,2.953125,2.96875,2.9375,1.9437191486358645,32800,0.0,
1990-02-15 00:00:00+00:00,2.953125,2.96875,2.953125,1.9540581703186035,152000,0.0,
1990-02-16 00:00:00+00:00,2.96875,2.96875,2.96875,1.9643971920013428,32000,0.0,
1990-02-20 00:00:00+00:00,2.984375,2.984375,2.953125,1.9540581703186035,23200,0.0,
1990-02-21 00:00:00+00:00,2.953125,2.953125,2.90625,1.9230401515960691,553600,0.0,
1990-02-22 00:00:00+00:00,2.90625,2.90625,2.84375,1.8816853761672971,148000,0.0,
1990-02-23 00:00:00+00:00,2.78125,2.78125,2.6875,1.798973798751831,575200,0.0,
1990-02-26 00:00:00+00:00,2.734375,2.75,2.734375,1.819651484489441,477600,0.0,
1990-02-27 00:00:00+00:00,2.765625,2.84375,2.765625,1.8816853761672971,357600,0.0,
1990-02-28 00:00:00+00:00,2.8125,2.828125,2.796875,1.8506672382354736,145600,0.0,
1990-03-01 00:00:00+00:00,2.796875,2.796875,2.75,1.819651484489441,225600,0.0,
1990-03-02 00:00:00+00:00,2.75,2.78125,2.6875,1.7886344194412231,931200,0.0,
1990-03-05 00:00:00+00:00,2.671875,2.703125,2.65625,1.767957091331482,146400,0.0,
1990-03-06 00:00:00+00:00,2.671875,2.734375,2.625,1.809311866760254,258400,0.0,
1990-03-07 00:00:00+00:00,2.734375,2.75,2.703125,1.819651484489441,174400,0.0,
1990-03-08 00:00:00+00:00,2.75,2.796875,2.734375,1.840328335762024,146400,0.0,
1990-03-09 00:00:00+00:00,2.75,2.78125,2.734375,1.809311866760254,194400,0.0,
1990-03-12 00:00:00+00:00,2.703125,2.71875,2.625,1.778295397758484,1072800,0.0,
1990-03-13 00:00:00+00:00,2.671875,2.6875,2.671875,1.778295397758484,662400,0.0,
1990-03-14 00:00:00+00:00,2.671875,2.765625,2.671875,1.8299907445907595,298400,0.0,
1990-03-15 00:00:00+00:00,2.78125,2.796875,2.71875,1.798973798751831,192000,0.0,
1990-03-16 00:00:00+00:00,2.75,2.78125,2.734375,1.840328335762024,271200,0.0,
1990-03-19 00:00:00+00:00,2.75,2.765625,2.75,1.8299907445907595,476000,0.0,
1990-03-20 00:00:00+00:00,2.75,2.90625,2.75,1.8506672382354736,898400,0.0,
1990-03-21 00:00:00+00:00,2.796875,2.8125,2.796875,1.8506672382354736,102400,0.0,
1990-03-22 00:00:00+00:00,2.75,2.765625,2.75,1.8299907445907595,177600,0.0,
1990-03-23 00:00:00+00:00,2.796875,2.796875,2.796875,1.8506672382354736,320000,0.0,
1990-03-26 00:00:00+00:00,2.78125,2.78125,2.75,1.819651484489441,37600,0.0,
1990-03-27 00:00:00+00:00,2.734375,2.75,2.734375,1.819651484489441,24000,0.0,
1990-03-28 00:00:00+00:00,2.84375,2.9375,2.84375,1.933379292488098,706400,0.0,
1990-03-29 00:00:00+00:00,2.921875,2.9375,2.890625,1.9230401515960691,361600,0.0,
1990-03-30 00:00:00+00:00,2.921875,2.921875,2.921875,1.933379292488098,161600,0.0,
1990-04-02 00:00:00+00:00,2.921875,2.921875,2.84375,1.9023630619049072,184800,0.0,
1990-04-03 00:00:00+00:00,2.875,3.03125,2.875,1.9747347831726076,358400,0.0,
1990-04-04 00:00:00+00:00,2.984375,2.984375,2.90625,1.9230401515960691,364800,0.0,
1990-04-05 00:00:00+00:00,2.9375,2.953125,2.90625,1.9230401515960691,373600,0.0,
1990-04-06 00:00:00+00:00,2.921875,2.921875,2.78125,1.840328335762024,810400,0.0,
1990-04-09 00:00:00+00:00,2.734375,2.765625,2.734375,1.813388109207153,336800,0.00625,
1990-04-10 00:00:00+00:00,2.75,2.8125,2.71875,1.8341118097305296,426400,0.0,
1990-04-11 00:00:00+00:00,2.78125,2.8125,2.71875,1.813388109207153,234400,0.0,
1990-04-12 00:00:00+00:00,2.71875,2.734375,2.59375,1.740851640701294,456000,0.0,
1990-04-16 00:00:00+00:00,2.640625,2.734375,2.640625,1.7926630973815918,273600,0.0,
1990-04-17 00:00:00+00:00,2.71875,2.71875,2.703125,1.803024649620056,16800,0.0,
1990-04-18 00:00:00+00:00,2.6875,2.75,2.6875,1.803024649620056,333600,0.0,
1990-04-19 00:00:00+00:00,2.71875,2.71875,2.671875,1.7823017835617063,207200,0.0,
1990-04-20 00:00:00+00:00,2.671875,2.6875,2.65625,1.7719389200210571,168800,0.0,
1990-04-23 00:00:00+00:00,2.65625,2.65625,2.625,1.740851640701294,173600,0.0,
1990-04-24 00:00:00+00:00,2.625,2.671875,2.625,1.740851640701294,458400,0.0,
1990-04-25 00:00:00+00:00,2.65625,2.671875,2.640625,1.7615751028060913,104000,0.0,
1990-04-26 00:00:00+00:00,2.625,2.6875,2.625,1.7823017835617063,461600,0.0,
1990-04-27 00:00:00+00:00,2.6875,2.703125,2.6875,1.7926630973815918,133600,0.0,
1990-04-30 00:00:00+00:00,2.703125,2.71875,2.6875,1.803024649620056,68800,0.0,
1990-05-01 00:00:00+00:00,2.71875,2.828125,2.6875,1.865199089050293,732800,0.0,
1990-05-02 00:00:00+00:00,2.78125,2.828125,2.765625,1.865199089050293,575200,0.0,
1990-05-03 00:00:00+00:00,2.84375,2.859375,2.828125,1.875562310218811,105600,0.0,
1990-05-04 00:00:00+00:00,2.84375,2.84375,2.78125,1.8444743156433103,279200,0.0,
1990-05-07 00:00:00+00:00,2.78125,2.84375,2.78125,1.8859227895736692,32800,0.0,
1990-05-08 00:00:00+00:00,2.84375,2.84375,2.828125,1.875562310218811,48800,0.0,
1990-05-09 00:00:00+00:00,2.84375,2.859375,2.796875,1.8548367023468015,1232800,0.0,
1990-05-10 00:00:00+00:00,2.8125,2.84375,2.796875,1.8548367023468015,428000,0.0,
1990-05-11 00:00:00+00:00,2.828125,2.875,2.828125,1.906646728515625,172000,0.0,
1990-05-14 00:00:00+00:00,2.890625,2.890625,2.75,1.8237496614456177,2418400,0.0,
1990-05-15 00:00:00+00:00,2.78125,2.828125,2.75,1.865199089050293,5804800,0.0,
1990-05-16 00:00:00+00:00,2.8125,2.96875,2.8125,1.927372455596924,367200,0.0,
1990-05-17 00:00:00+00:00,2.921875,2.953125,2.921875,1.9584580659866333,196000,0.0,
1990-05-18 00:00:00+00:00,2.96875,3.0,2.96875,1.9895448684692385,181600,0.0,
1990-05-21 00:00:00+00:00,2.96875,2.96875,2.921875,1.9584580659866333,74400,0.0,
1990-05-22 00:00:00+00:00,2.984375,2.984375,2.96875,1.9688196182250977,40800,0.0,
1990-05-23 00:00:00+00:00,2.96875,2.96875,2.90625,1.927372455596924,30400,0.0,
1990-05-24 00:00:00+00:00,2.921875,2.921875,2.75,1.865199089050293,483200,0.0,
1990-05-25 00:00:00+00:00,2.8125,2.875,2.75,1.906646728515625,817600,0.0,
1990-05-29 00:00:00+00:00,2.890625,2.90625,2.890625,1.927372455596924,60800,0.0,
1990-05-30 00:00:00+00:00,2.9375,2.984375,2.921875,1.9688196182250977,129600,0.0,
1990-05-31 00:00:00+00:00,2.9375,2.984375,2.90625,1.9688196182250977,143200,0.0,
1990-06-01 00:00:00+00:00,2.96875,2.984375,2.953125,1.9688196182250977,47200,0.0,
1990-06-04 00:00:00+00:00,2.9375,2.984375,2.90625,1.9791834354400637,68000,0.0,
1990-06-05 00:00:00+00:00,2.984375,3.0,2.796875,1.9170111417770384,1125600,0.0,
1990-06-06 00:00:00+00:00,2.890625,2.90625,2.875,1.906646728515625,44000,0.0,
1990-06-07 00:00:00+00:00,2.890625,2.890625,2.859375,1.8962844610214236,212800,0.0,
1990-06-08 00:00:00+00:00,2.875,2.875,2.8125,1.8859227895736692,405600,0.0,
1990-06-11 00:00:00+00:00,2.859375,2.890625,2.84375,1.906646728515625,48800,0.0,
1990-06-12 00:00:00+00:00,2.90625,3.0,2.859375,1.9791834354400637,196000,0.0,
1990-06-13 00:00:00+00:00,2.96875,3.09375,2.96875,1.9688196182250977,208000,0.0,
1990-06-14 00:00:00+00:00,2.953125,2.984375,2.9375,1.9791834354400637,20800,0.0,
1990-06-15 00:00:00+00:00,2.984375,2.984375,2.921875,1.9688196182250977,158400,0.0,
1990-06-18 00:00:00+00:00,2.96875,2.96875,2.96875,1.9688196182250977,1600,0.0,
1990-06-19 00:00:00+00:00,2.9375,2.9375,2.875,1.937734007835388,174400,0.0,
1990-06-20 00:00:00+00:00,2.953125,2.953125,2.90625,1.948096513748169,127200,0.0,
1990-06-21 00:00:00+00:00,2.921875,2.9375,2.921875,1.948096513748169,6400,0.0,
1990-06-22 00:00:00+00:00,2.9375,2.953125,2.921875,1.9584580659866333,356800,0.0,
1990-06-25 00:00:00+00:00,2.921875,2.9375,2.90625,1.937734007835388,24800,0.0,
1990-06-26 00:00:00+00:00,2.90625,2.921875,2.859375,1.937734007835388,207200,0.0,
1990-06-27 00:00:00+00:00,2.921875,2.9375,2.921875,1.937734007835388,13600,0.0,
1990-06-28 00:00:00+00:00,2.9375,2.96875,2.9375,1.9688196182250977,157600,0.0,
1990-06-29 00:00:00+00:00,2.984375,2.984375,2.953125,1.9688196182250977,327200,0.0,
1990-07-02 00:00:00+00:00,2.953125,2.953125,2.875,1.927372455596924,322400,0.0,
1990-07-03 00:00:00+00:00,2.9375,2.9375,2.875,1.906646728515625,308800,0.0,
1990-07-05 00:00:00+00:00,2.84375,2.84375,2.8125,1.875562310218811,596800,0.0,
1990-07-06 00:00:00+00:00,2.78125,2.796875,2.78125,1.8548367023468015,82400,0.0,
1990-07-09 00:00:00+00:00,2.796875,2.8125,2.75,1.8444743156433103,724800,0.0,
1990-07-10 00:00:00+00:00,2.78125,2.78125,2.765625,1.8486278057098389,1073600,0.00625,
1990-07-11 00:00:00+00:00,2.78125,2.8125,2.78125,1.859015703201294,776000,0.0,
1990-07-12 00:00:00+00:00,2.796875,2.90625,2.796875,1.9109424352645876,1208800,0.0,
1990-07-13 00:00:00+00:00,2.90625,3.0,2.90625,1.9732550382614136,568000,0.0,
1990-07-16 00:00:00+00:00,2.984375,3.0,2.96875,1.9732550382614136,680800,0.0,
1990-07-17 00:00:00+00:00,2.96875,2.96875,2.921875,1.942098617553711,102400,0.0,
1990-07-18 00:00:00+00:00,2.921875,2.921875,2.84375,1.890170931816101,348000,0.0,
1990-07-19 00:00:00+00:00,2.8125,2.875,2.796875,1.9109424352645876,465600,0.0,
1990-07-20 00:00:00+00:00,2.890625,2.90625,2.890625,1.921328067779541,51200,0.0,
1990-07-23 00:00:00+00:00,2.875,2.9375,2.859375,1.9524842500686648,349600,0.0,
1990-07-24 00:00:00+00:00,2.90625,3.015625,2.90625,1.983641505241394,353600,0.0,
1990-07-25 00:00:00+00:00,3.015625,3.03125,3.0,2.014796733856201,52000,0.0,
1990-07-26 00:00:00+00:00,3.0625,3.0625,3.03125,2.0355677604675293,80000,0.0,
1990-07-27 00:00:00+00:00,3.03125,3.0625,2.984375,1.983641505241394,75200,0.0,
1990-07-30 00:00:00+00:00,3.0,3.0,2.984375,1.9940253496170044,160800,0.0,
1990-07-31 00:00:00+00:00,2.953125,3.015625,2.953125,1.9940253496170044,175200,0.0,
1990-08-01 00:00:00+00:00,3.03125,3.0625,3.0,2.0044119358062744,134400,0.0,
1990-08-02 00:00:00+00:00,3.125,3.171875,3.03125,2.108267068862915,1056800,0.0,
1990-08-03 00:00:00+00:00,3.15625,3.265625,3.109375,2.129037618637085,1272000,0.0,
1990-08-06 00:00:00+00:00,3.25,3.265625,3.125,2.0771100521087646,247200,0.0,
1990-08-07 00:00:00+00:00,3.125,3.140625,3.125,2.087496280670166,148800,0.0,
1990-08-08 00:00:00+00:00,3.125,3.140625,3.09375,2.0563385486602783,170400,0.0,
1990-08-09 00:00:00+00:00,3.09375,3.09375,3.0625,2.0563385486602783,296000,0.0,
1990-08-10 00:00:00+00:00,3.09375,3.109375,3.09375,2.0563385486602783,299200,0.0,
1990-08-13 00:00:00+00:00,3.109375,3.125,3.078125,2.0459530353546143,56800,0.0,
1990-08-14 00:00:00+00:00,3.109375,3.109375,3.0625,2.0355677604675293,49600,0.0,
1990-08-15 00:00:00+00:00,3.0625,3.15625,3.0625,2.0771100521087646,196000,0.0,
1990-08-16 00:00:00+00:00,3.109375,3.125,3.078125,2.066725730895996,140000,0.0,
1990-08-17 00:00:00+00:00,3.140625,3.1875,3.125,2.087496280670166,201600,0.0,
1990-08-20 00:00:00+00:00,3.15625,3.15625,3.046875,2.0251834392547607,239200,0.0,
1990-08-21 00:00:00+00:00,3.0625,3.09375,3.0625,2.0459530353546143,452000,0.0,
1990-08-22 00:00:00+00:00,3.0625,3.09375,3.015625,2.0044119358062744,333600,0.0,
1990-08-23 00:00:00+00:00,3.0,3.0,2.9375,1.9732550382614136,364000,0.0,
1990-08-24 00:00:00+00:00,2.921875,3.0,2.921875,1.9940253496170044,326400,0.0,
1990-08-27 00:00:00+00:00,3.0,3.0,2.953125,1.9628697633743288,88000,0.0,
1990-08-28 00:00:00+00:00,2.953125,2.984375,2.953125,1.983641505241394,8000,0.0,
1990-08-29 00:00:00+00:00,3.015625,3.015625,2.9375,1.9524842500686648,140800,0.0,
1990-08-30 00:00:00+00:00,2.953125,2.984375,2.90625,1.983641505241394,65600,0.0,
1990-08-31 00:00:00+00:00,2.953125,2.984375,2.890625,1.942098617553711,256800,0.0,
1990-09-04 00:00:00+00:00,2.9375,2.953125,2.9375,1.9628697633743288,20000,0.0,
1990-09-05 00:00:00+00:00,2.953125,3.1875,2.953125,2.108267068862915,223200,0.0,
1990-09-06 00:00:00+00:00,3.203125,3.296875,3.1875,2.191349983215332,317600,0.0,
1990-09-07 00:00:00+00:00,3.296875,3.359375,3.296875,2.232893705368042,160800,0.0,
1990-09-10 00:00:00+00:00,3.328125,3.390625,3.328125,2.232893705368042,1408800,0.0,
1990-09-11 00:00:00+00:00,3.375,3.375,3.1875,2.201737642288208,963200,0.0,
1990-09-12 00:00:00+00:00,3.34375,3.34375,3.265625,2.201737642288208,336000,0.0,
1990-09-13 00:00:00+00:00,3.3125,3.328125,3.25,2.16019606590271,405600,0.0,
1990-09-14 00:00:00+00:00,3.25,3.390625,3.25,2.253664970397949,209600,0.0,
1990-09-17 00:00:00+00:00,3.390625,3.46875,3.375,2.305593967437744,1116000,0.0,
1990-09-18 00:00:00+00:00,3.46875,3.765625,3.46875,2.4406042098999023,776800,0.0,
1990-09-19 00:00:00+00:00,3.6875,3.6875,3.65625,2.430220127105713,1624800,0.0,
1990-09-20 00:00:00+00:00,3.65625,3.65625,3.53125,2.347135066986084,432000,0.0,
1990-09-21 00:00:00+00:00,3.484375,3.5625,3.46875,2.3679065704345703,521600,0.0,
1990-09-24 00:00:00+00:00,3.5625,3.5625,3.484375,2.3367490768432617,112800,0.0,
1990-09-25 00:00:00+00:00,3.5,3.515625,3.5,2.3367490768432617,221600,0.0,
1990-09-26 00:00:00+00:00,3.515625,3.515625,3.453125,2.305593967437744,55200,0.0,
1990-09-27 00:00:00+00:00,3.4375,3.453125,3.375,2.2432780265808105,72800,0.0,
1990-09-28 00:00:00+00:00,3.375,3.375,3.28125,2.222508430480957,163200,0.0,
1990-10-01 00:00:00+00:00,3.328125,3.390625,3.296875,2.222508430480957,455200,0.0,
1990-10-02 00:00:00+00:00,3.359375,3.359375,3.328125,2.232893705368042,72000,0.0,
1990-10-03 00:00:00+00:00,3.34375,3.34375,3.3125,2.222508430480957,26400,0.0,
1990-10-04 00:00:00+00:00,3.34375,3.34375,3.25,2.16019606590271,313600,0.0,
1990-10-05 00:00:00+00:00,3.234375,3.296875,3.1875,2.118652820587158,550400,0.0,
1990-10-08 00:00:00+00:00,3.203125,3.234375,3.1875,2.118652820587158,411200,0.0,
1990-10-09 00:00:00+00:00,3.203125,3.375,3.203125,2.226873874664306,298400,0.00625,
1990-10-10 00:00:00+00:00,3.34375,3.34375,3.21875,2.1540327072143555,200000,0.0,
1990-10-11 00:00:00+00:00,3.25,3.25,3.203125,2.143627166748047,34400,0.0,
1990-10-12 00:00:00+00:00,3.1875,3.203125,3.171875,2.133220195770264,89600,0.0,
1990-10-15 00:00:00+00:00,3.203125,3.203125,3.15625,2.1020045280456543,36800,0.0,
1990-10-16 00:00:00+00:00,3.140625,3.15625,3.109375,2.070784330368042,153600,0.0,
1990-10-17 00:00:00+00:00,3.109375,3.125,3.09375,2.0811917781829834,11200,0.0,
1990-10-18 00:00:00+00:00,3.109375,3.125,3.109375,2.070784330368042,113600,0.0,
1990-10-19 00:00:00+00:00,3.109375,3.109375,3.078125,2.0603795051574707,36800,0.0,
1990-10-22 00:00:00+00:00,3.109375,3.109375,3.0625,2.039567470550537,68000,0.0,
1990-10-23 00:00:00+00:00,3.0625,3.109375,3.0625,2.070784330368042,17600,0.0,
1990-10-24 00:00:00+00:00,3.125,3.15625,3.125,2.1020045280456543,120000,0.0,
1990-10-25 00:00:00+00:00,3.1875,3.328125,3.1875,2.2164692878723145,112800,0.0,
1990-10-26 00:00:00+00:00,3.3125,3.359375,3.3125,2.2372801303863525,22400,0.0,
1990-10-29 00:00:00+00:00,3.375,3.375,3.359375,2.2372801303863525,16000,0.0,
1990-10-30 00:00:00+00:00,3.34375,3.359375,3.28125,2.195657730102539,29600,0.0,
1990-10-31 00:00:00+00:00,3.3125,3.453125,3.3125,2.2476863861083984,366400,0.0,
1990-11-01 00:00:00+00:00,3.375,3.375,3.359375,2.2476863861083984,163200,0.0,
1990-11-02 00:00:00+00:00,3.375,3.53125,3.375,2.3309333324432373,469600,0.0,
1990-11-05 00:00:00+00:00,3.53125,3.546875,3.46875,2.3101232051849365,426400,0.0,
1990-11-06 00:00:00+00:00,3.484375,3.484375,3.421875,2.278904438018799,8800,0.0,
1990-11-07 00:00:00+00:00,3.421875,3.421875,3.375,2.2476863861083984,148000,0.0,
1990-11-08 00:00:00+00:00,3.34375,3.390625,3.34375,2.2580912113189697,37600,0.0,
1990-11-09 00:00:00+00:00,3.375,3.4375,3.375,2.278904438018799,397600,0.0,
1990-11-12 00:00:00+00:00,3.390625,3.390625,3.328125,2.2164692878723145,76800,0.0,
1990-11-13 00:00:00+00:00,3.15625,3.15625,3.109375,2.070784330368042,208000,0.0,
1990-11-14 00:00:00+00:00,3.125,3.1875,3.109375,2.122814893722534,75200,0.0,
1990-11-15 00:00:00+00:00,3.15625,3.171875,3.125,2.091597557067871,45600,0.0,
1990-11-16 00:00:00+00:00,3.140625,3.15625,3.09375,2.1020045280456543,300800,0.0,
1990-11-19 00:00:00+00:00,3.15625,3.15625,2.984375,1.987537860870361,456800,0.0,
1990-11-20 00:00:00+00:00,2.96875,2.96875,2.84375,1.9459148645401,329600,0.0,
1990-11-21 00:00:00+00:00,2.90625,2.96875,2.890625,1.9771314859390257,32800,0.0,
1990-11-23 00:00:00+00:00,2.96875,2.984375,2.96875,1.9771314859390257,18400,0.0,
1990-11-26 00:00:00+00:00,2.984375,3.0,2.96875,1.9771314859390257,40000,0.0,
1990-11-27 00:00:00+00:00,2.984375,2.984375,2.9375,1.96672523021698,39200,0.0,
1990-11-28 00:00:00+00:00,2.953125,2.953125,2.90625,1.9459148645401,145600,0.0,
1990-11-29 00:00:00+00:00,2.90625,2.90625,2.90625,1.9355076551437376,36800,0.0,
1990-11-30 00:00:00+00:00,2.875,2.890625,2.765625,1.8730711936950684,236000,0.0,
1990-12-03 00:00:00+00:00,2.796875,2.796875,2.609375,1.831448674201965,366400,0.0,
1990-12-04 00:00:00+00:00,2.734375,2.734375,2.671875,1.8106364011764529,230400,0.0,
1990-12-05 00:00:00+00:00,2.71875,2.796875,2.71875,1.85226047039032,432000,0.0,
1990-12-06 00:00:00+00:00,2.78125,2.8125,2.734375,1.831448674201965,248800,0.0,
1990-12-07 00:00:00+00:00,2.71875,2.71875,2.625,1.8106364011764529,257600,0.0,
1990-12-10 00:00:00+00:00,2.734375,2.734375,2.703125,1.8106364011764529,179200,0.0,
1990-12-11 00:00:00+00:00,2.703125,2.78125,2.703125,1.8210424184799197,981600,0.0,
1990-12-12 00:00:00+00:00,2.75,2.78125,2.734375,1.85226047039032,493600,0.0,
1990-12-13 00:00:00+00:00,2.75,2.75,2.71875,1.8106364011764529,908000,0.0,
1990-12-14 00:00:00+00:00,2.71875,2.78125,2.65625,1.85226047039032,207200,0.0,
1990-12-17 00:00:00+00:00,2.796875,2.828125,2.734375,1.8210424184799197,89600,0.0,
1990-12-18 00:00:00+00:00,2.765625,2.796875,2.703125,1.8002315759658811,153600,0.0,
1990-12-19 00:00:00+00:00,2.703125,2.734375,2.640625,1.7586053609848022,277600,0.0,
1990-12-20 00:00:00+00:00,2.609375,2.609375,2.546875,1.7065776586532593,1007200,0.0,
1990-12-21 00:00:00+00:00,2.484375,2.515625,2.484375,1.6649521589279177,980000,0.0,
1990-12-24 00:00:00+00:00,2.5,2.546875,2.5,1.6961711645126345,222400,0.0,
1990-12-26 00:00:00+00:00,2.5625,2.75,2.5625,1.831448674201965,93600,0.0,
1990-12-27 00:00:00+00:00,2.75,2.75,2.71875,1.8210424184799197,51200,0.0,
1990-12-28 00:00:00+00:00,2.71875,2.71875,2.65625,1.769011378288269,49600,0.0,
1990-12-31 00:00:00+00:00,2.65625,2.65625,2.53125,1.769011378288269,364800,0.0,
1991-01-02 00:00:00+00:00,2.625,2.625,2.59375,1.727388858795166,36000,0.0,
1991-01-03 00:00:00+00:00,2.59375,2.59375,2.484375,1.654547095298767,413600,0.0,
1991-01-04 00:00:00+00:00,2.4375,2.4375,2.328125,1.5504878759384155,216800,0.0,
1991-01-07 00:00:00+00:00,2.296875,2.3125,2.21875,1.5088640451431274,599200,0.0,
1991-01-08 00:00:00+00:00,2.25,2.265625,2.15625,1.43602192401886,679200,0.0,
1991-01-09 00:00:00+00:00,2.171875,2.1875,2.140625,1.4297597408294678,572000,0.00625,
1991-01-10 00:00:00+00:00,2.125,2.140625,2.09375,1.4297597408294678,296000,0.0,
1991-01-11 00:00:00+00:00,2.109375,2.21875,2.109375,1.4819419384002686,278400,0.0,
1991-01-14 00:00:00+00:00,2.234375,2.265625,2.21875,1.5028138160705566,172800,0.0,
1991-01-15 00:00:00+00:00,2.25,2.25,2.171875,1.4923778772354126,92800,0.0,
1991-01-16 00:00:00+00:00,2.234375,2.25,2.171875,1.4715055227279663,50400,0.0,
1991-01-17 00:00:00+00:00,2.1875,2.25,2.03125,1.4715055227279663,1341600,0.0,
1991-01-18 00:00:00+00:00,2.203125,2.21875,2.15625,1.4610687494277954,275200,0.0,
1991-01-21 00:00:00+00:00,2.15625,2.15625,2.0625,1.4193240404129028,550400,0.0,
1991-01-22 00:00:00+00:00,2.15625,2.171875,2.125,1.4193240404129028,174400,0.0,
1991-01-23 00:00:00+00:00,2.140625,2.265625,2.140625,1.5028138160705566,837600,0.0,
1991-01-24 00:00:00+00:00,2.3125,2.34375,2.265625,1.523686408996582,495200,0.0,
1991-01-25 00:00:00+00:00,2.3125,2.375,2.21875,1.5028138160705566,817600,0.0,
1991-01-28 00:00:00+00:00,2.28125,2.296875,2.203125,1.4923778772354126,679200,0.0,
1991-01-29 00:00:00+00:00,2.25,2.265625,2.25,1.5028138160705566,99200,0.0,
1991-01-30 00:00:00+00:00,2.21875,2.25,2.203125,1.4923778772354126,132000,0.0,
1991-01-31 00:00:00+00:00,2.21875,2.21875,2.15625,1.450632095336914,384800,0.0,
1991-02-01 00:00:00+00:00,2.15625,2.21875,2.15625,1.4819419384002686,869600,0.0,
1991-02-04 00:00:00+00:00,2.21875,2.28125,2.203125,1.5028138160705566,961600,0.0,
1991-02-05 00:00:00+00:00,2.25,2.375,2.25,1.523686408996582,1217600,0.0,
1991-02-06 00:00:00+00:00,2.28125,2.5,2.28125,1.6593561172485352,1186400,0.0,
1991-02-07 00:00:00+00:00,2.546875,2.78125,2.546875,1.795027732849121,1224000,0.0,
1991-02-08 00:00:00+00:00,2.65625,2.6875,2.640625,1.7845908403396606,94400,0.0,
1991-02-11 00:00:00+00:00,2.6875,2.75,2.640625,1.805464267730713,307200,0.0,
1991-02-12 00:00:00+00:00,2.734375,2.734375,2.59375,1.7324097156524658,216000,0.0,
1991-02-13 00:00:00+00:00,2.625,2.703125,2.625,1.805464267730713,45600,0.0,
1991-02-14 00:00:00+00:00,2.6875,2.6875,2.515625,1.6802290678024292,148800,0.0,
1991-02-15 00:00:00+00:00,2.484375,2.609375,2.484375,1.7428460121154783,356800,0.0,
1991-02-19 00:00:00+00:00,2.59375,2.59375,2.515625,1.7011014223098757,160800,0.0,
1991-02-20 00:00:00+00:00,2.546875,2.625,2.515625,1.7532830238342283,219200,0.0,
1991-02-21 00:00:00+00:00,2.609375,2.625,2.59375,1.7324097156524658,188000,0.0,
1991-02-22 00:00:00+00:00,2.59375,2.59375,2.453125,1.6384845972061155,408000,0.0,
1991-02-25 00:00:00+00:00,2.453125,2.453125,2.328125,1.5549944639205933,88800,0.0,
1991-02-26 00:00:00+00:00,2.3125,2.328125,2.265625,1.5445590019226074,776800,0.0,
1991-02-27 00:00:00+00:00,2.34375,2.453125,2.34375,1.6280487775802612,1544000,0.0,
1991-02-28 00:00:00+00:00,2.46875,2.59375,2.453125,1.7324097156524658,578400,0.0,
1991-03-01 00:00:00+00:00,2.59375,2.59375,2.53125,1.7011014223098757,692800,0.0,
1991-03-04 00:00:00+00:00,2.546875,2.609375,2.546875,1.7324097156524658,555200,0.0,
1991-03-05 00:00:00+00:00,2.5625,2.578125,2.5625,1.721973896026611,418400,0.0,
1991-03-06 00:00:00+00:00,2.546875,2.59375,2.546875,1.7115377187728882,180800,0.0,
1991-03-07 00:00:00+00:00,2.5625,2.625,2.5625,1.7532830238342283,280800,0.0,
1991-03-08 00:00:00+00:00,2.625,2.78125,2.59375,1.7845908403396606,442400,0.0,
1991-03-11 00:00:00+00:00,2.6875,2.75,2.6875,1.815901041030884,116000,0.0,
1991-03-12 00:00:00+00:00,2.75,2.75,2.6875,1.795027732849121,163200,0.0,
1991-03-13 00:00:00+00:00,2.671875,2.671875,2.59375,1.7324097156524658,147200,0.0,
1991-03-14 00:00:00+00:00,2.578125,2.59375,2.546875,1.7115377187728882,184000,0.0,
1991-03-15 00:00:00+00:00,2.546875,2.65625,2.546875,1.7532830238342283,289600,0.0,
1991-03-18 00:00:00+00:00,2.640625,2.6875,2.625,1.795027732849121,136000,0.0,
1991-03-19 00:00:00+00:00,2.65625,2.65625,2.609375,1.7532830238342283,172000,0.0,
1991-03-20 00:00:00+00:00,2.625,2.65625,2.625,1.7741549015045166,71200,0.0,
1991-03-21 00:00:00+00:00,2.671875,2.734375,2.65625,1.826336145401001,327200,0.0,
1991-03-22 00:00:00+00:00,2.734375,2.734375,2.703125,1.805464267730713,93600,0.0,
1991-03-25 00:00:00+00:00,2.71875,2.71875,2.640625,1.805464267730713,115200,0.0,
1991-03-26 00:00:00+00:00,2.671875,2.6875,2.625,1.7741549015045166,447200,0.0,
1991-03-27 00:00:00+00:00,2.640625,2.640625,2.578125,1.721973896026611,86400,0.0,
1991-03-28 00:00:00+00:00,2.578125,2.59375,2.515625,1.6802290678024292,70400,0.0,
1991-04-01 00:00:00+00:00,2.53125,2.53125,2.453125,1.6384845972061155,128000,0.0,
1991-04-02 00:00:00+00:00,2.46875,2.46875,2.359375,1.586303472518921,367200,0.0,
1991-04-03 00:00:00+00:00,2.359375,2.4375,2.3125,1.5445590019226074,1358400,0.0,
1991-04-04 00:00:00+00:00,2.34375,2.40625,2.34375,1.607174515724182,1049600,0.0,
1991-04-05 00:00:00+00:00,2.421875,2.484375,2.421875,1.6593561172485352,73600,0.0,
1991-04-08 00:00:00+00:00,2.46875,2.46875,2.4375,1.6280487775802612,24000,0.0,
1991-04-09 00:00:00+00:00,2.40625,2.4375,2.375,1.6280487775802612,198400,0.0,
1991-04-10 00:00:00+00:00,2.421875,2.421875,2.34375,1.6008442640304563,198400,0.00625,
1991-04-11 00:00:00+00:00,2.40625,2.4375,2.359375,1.611305832862854,255200,0.0,
1991-04-12 00:00:00+00:00,2.40625,2.46875,2.390625,1.6531590223312378,398400,0.0,
1991-04-15 00:00:00+00:00,2.5,2.5625,2.5,1.7054738998413086,258400,0.0,
1991-04-16 00:00:00+00:00,2.53125,2.640625,2.53125,1.7577905654907229,468000,0.0,
1991-04-17 00:00:00+00:00,2.640625,2.640625,2.578125,1.7264009714126587,662400,0.0,
1991-04-18 00:00:00+00:00,2.609375,2.640625,2.609375,1.7577905654907229,68800,0.0,
1991-04-19 00:00:00+00:00,2.609375,2.625,2.5625,1.7264009714126587,20000,0.0,
1991-04-22 00:00:00+00:00,2.578125,2.578125,2.484375,1.674086093902588,263200,0.0,
1991-04-23 00:00:00+00:00,2.484375,2.5,2.453125,1.674086093902588,69600,0.0,
1991-04-24 00:00:00+00:00,2.5,2.5,2.46875,1.674086093902588,44800,0.0,
1991-04-25 00:00:00+00:00,2.484375,2.484375,2.46875,1.6531590223312378,70400,0.0,
1991-04-26 00:00:00+00:00,2.453125,2.453125,2.421875,1.6322340965270996,24000,0.0,
1991-04-29 00:00:00+00:00,2.421875,2.421875,2.34375,1.5694549083709717,373600,0.0,
1991-04-30 00:00:00+00:00,2.375,2.375,2.328125,1.5903819799423218,1024800,0.0,
1991-05-01 00:00:00+00:00,2.375,2.421875,2.34375,1.621769905090332,403200,0.0,
1991-05-02 00:00:00+00:00,2.40625,2.40625,2.375,1.5903819799423218,714400,0.0,
1991-05-03 00:00:00+00:00,2.40625,2.4375,2.359375,1.6008442640304563,464000,0.0,
1991-05-06 00:00:00+00:00,2.375,2.375,2.359375,1.5799179077148438,11200,0.0,
1991-05-07 00:00:00+00:00,2.375,2.375,2.28125,1.5694549083709717,360800,0.0,
1991-05-08 00:00:00+00:00,2.34375,2.453125,2.328125,1.6322340965270996,567200,0.0,
1991-05-09 00:00:00+00:00,2.453125,2.46875,2.40625,1.6531590223312378,150400,0.0,
1991-05-10 00:00:00+00:00,2.453125,2.453125,2.375,1.5903819799423218,88800,0.0,
1991-05-13 00:00:00+00:00,2.359375,2.359375,2.28125,1.5276033878326416,872000,0.0,
1991-05-14 00:00:00+00:00,2.28125,2.375,2.28125,1.5485293865203855,366400,0.0,
1991-05-15 00:00:00+00:00,2.3125,2.40625,2.3125,1.6008442640304563,276000,0.0,
1991-05-16 00:00:00+00:00,2.453125,2.46875,2.421875,1.621769905090332,404000,0.0,
1991-05-17 00:00:00+00:00,2.421875,2.421875,2.390625,1.611305832862854,25600,0.0,
1991-05-20 00:00:00+00:00,2.40625,2.4375,2.390625,1.611305832862854,121600,0.0,
1991-05-21 00:00:00+00:00,2.4375,2.4375,2.34375,1.5903819799423218,480800,0.0,
1991-05-22 00:00:00+00:00,2.375,2.390625,2.375,1.6008442640304563,31200,0.0,
1991-05-23 00:00:00+00:00,2.40625,2.421875,2.375,1.611305832862854,240800,0.0,
1991-05-24 00:00:00+00:00,2.421875,2.453125,2.375,1.6008442640304563,160800,0.0,
1991-05-28 00:00:00+00:00,2.375,2.453125,2.375,1.6322340965270996,60000,0.0,
1991-05-29 00:00:00+00:00,2.4375,2.4375,2.421875,1.6322340965270996,334400,0.0,
1991-05-30 00:00:00+00:00,2.4375,2.5,2.421875,1.674086093902588,521600,0.0,
1991-05-31 00:00:00+00:00,2.53125,2.625,2.53125,1.7577905654907229,1612000,0.0,
1991-06-03 00:00:00+00:00,2.65625,2.6875,2.609375,1.7577905654907229,256000,0.0,
1991-06-04 00:00:00+00:00,2.65625,2.671875,2.625,1.7577905654907229,1272800,0.0,
1991-06-05 00:00:00+00:00,2.625,2.625,2.578125,1.7264009714126587,141600,0.0,
1991-06-06 00:00:00+00:00,2.5625,2.609375,2.5625,1.7368634939193726,201600,0.0,
1991-06-07 00:00:00+00:00,2.59375,2.59375,2.53125,1.6950113773345947,473600,0.0,
1991-06-10 00:00:00+00:00,2.546875,2.5625,2.53125,1.6950113773345947,168000,0.0,
1991-06-11 00:00:00+00:00,2.53125,2.53125,2.4375,1.674086093902588,155200,0.0,
1991-06-12 00:00:00+00:00,2.5,2.5,2.484375,1.674086093902588,51200,0.0,
1991-06-13 00:00:00+00:00,2.5,2.5,2.484375,1.6636217832565308,1600,0.0,
1991-06-14 00:00:00+00:00,2.46875,2.46875,2.46875,1.6531590223312378,83200,0.0,
1991-06-17 00:00:00+00:00,2.46875,2.46875,2.453125,1.6426963806152344,21600,0.0,
1991-06-18 00:00:00+00:00,2.46875,2.46875,2.4375,1.6531590223312378,341600,0.0,
1991-06-19 00:00:00+00:00,2.46875,2.5,2.46875,1.674086093902588,170400,0.0,
1991-06-20 00:00:00+00:00,2.4375,2.4375,2.375,1.5903819799423218,30400,0.0,
1991-06-21 00:00:00+00:00,2.34375,2.375,2.3125,1.5694549083709717,251200,0.0,
1991-06-24 00:00:00+00:00,2.359375,2.375,2.3125,1.5903819799423218,124800,0.0,
1991-06-25 00:00:00+00:00,2.375,2.375,2.359375,1.5799179077148438,39200,0.0,
1991-06-26 00:00:00+00:00,2.328125,2.359375,2.296875,1.5485293865203855,188000,0.0,
1991-06-27 00:00:00+00:00,2.3125,2.34375,2.28125,1.5485293865203855,260800,0.0,
1991-06-28 00:00:00+00:00,2.3125,2.3125,2.25,1.5066766738891602,418400,0.0,
1991-07-01 00:00:00+00:00,2.25,2.25,2.203125,1.4752885103225708,188800,0.0,
1991-07-02 00:00:00+00:00,2.21875,2.25,2.21875,1.4962142705917358,127200,0.0,
1991-07-03 00:00:00+00:00,2.203125,2.28125,2.203125,1.5066766738891602,267200,0.0,
1991-07-05 00:00:00+00:00,2.25,2.25,2.25,1.5066766738891602,3200,0.0,
1991-07-08 00:00:00+00:00,2.25,2.296875,2.25,1.5380666255950928,192800,0.0,
1991-07-09 00:00:00+00:00,2.28125,2.3125,2.234375,1.5212796926498413,359200,0.00625,
1991-07-10 00:00:00+00:00,2.25,2.25,2.234375,1.5002962350845337,56000,0.0,
1991-07-11 00:00:00+00:00,2.25,2.328125,2.25,1.552754521369934,152800,0.0,
1991-07-12 00:00:00+00:00,2.34375,2.359375,2.28125,1.5422635078430176,1025600,0.0,
1991-07-15 00:00:00+00:00,2.328125,2.375,2.328125,1.5947210788726809,791200,0.0,
1991-07-16 00:00:00+00:00,2.359375,2.421875,2.34375,1.6261945962905884,1204800,0.0,
1991-07-17 00:00:00+00:00,2.453125,2.59375,2.4375,1.7416024208068848,1052000,0.0,
1991-07-18 00:00:00+00:00,2.625,2.671875,2.625,1.794060230255127,304800,0.0,
1991-07-19 00:00:00+00:00,2.671875,2.671875,2.609375,1.7625865936279297,73600,0.0,
1991-07-22 00:00:00+00:00,2.625,2.625,2.5625,1.7416024208068848,72000,0.0,
1991-07-23 00:00:00+00:00,2.609375,2.625,2.578125,1.7311115264892578,124000,0.0,
1991-07-24 00:00:00+00:00,2.578125,2.59375,2.578125,1.7311115264892578,39200,0.0,
1991-07-25 00:00:00+00:00,2.5625,2.578125,2.5625,1.720620036125183,232800,0.0,
1991-07-26 00:00:00+00:00,2.5625,2.59375,2.5625,1.7416024208068848,226400,0.0,
1991-07-29 00:00:00+00:00,2.609375,2.609375,2.59375,1.7520939111709597,6400,0.0,
1991-07-30 00:00:00+00:00,2.59375,2.65625,2.59375,1.7625865936279297,582400,0.0,
1991-07-31 00:00:00+00:00,2.5625,2.578125,2.53125,1.699636697769165,698400,0.0,
1991-08-01 00:00:00+00:00,2.53125,2.578125,2.53125,1.720620036125183,248800,0.0,
1991-08-02 00:00:00+00:00,2.546875,2.546875,2.546875,1.710127592086792,71200,0.0,
1991-08-05 00:00:00+00:00,2.5625,2.578125,2.546875,1.720620036125183,96800,0.0,
1991-08-06 00:00:00+00:00,2.5625,2.625,2.5625,1.7416024208068848,457600,0.0,
1991-08-07 00:00:00+00:00,2.59375,2.625,2.59375,1.7625865936279297,733600,0.0,
1991-08-08 00:00:00+00:00,2.640625,2.6875,2.625,1.7730765342712402,413600,0.0,
1991-08-09 00:00:00+00:00,2.625,2.65625,2.625,1.7835693359375,111200,0.0,
1991-08-12 00:00:00+00:00,2.6875,2.703125,2.640625,1.7835693359375,223200,0.0,
1991-08-13 00:00:00+00:00,2.640625,2.6875,2.640625,1.8045525550842283,118400,0.0,
1991-08-14 00:00:00+00:00,2.671875,2.75,2.671875,1.8465180397033687,372000,0.0,
1991-08-15 00:00:00+00:00,2.75,2.75,2.71875,1.8465180397033687,369600,0.0,
1991-08-16 00:00:00+00:00,2.734375,2.734375,2.703125,1.815044641494751,490400,0.0,
1991-08-19 00:00:00+00:00,2.671875,2.671875,2.609375,1.7520939111709597,91200,0.0,
1991-08-20 00:00:00+00:00,2.609375,2.625,2.609375,1.7625865936279297,22400,0.0,
1991-08-21 00:00:00+00:00,2.625,2.625,2.609375,1.7625865936279297,78400,0.0,
1991-08-22 00:00:00+00:00,2.640625,2.640625,2.5625,1.7416024208068848,292800,0.0,
1991-08-23 00:00:00+00:00,2.59375,2.75,2.59375,1.8465180397033687,1125600,0.0,
1991-08-26 00:00:00+00:00,2.75,2.78125,2.734375,1.8465180397033687,183200,0.0,
1991-08-27 00:00:00+00:00,2.75,2.84375,2.75,1.888484001159668,362400,0.0,
1991-08-28 00:00:00+00:00,2.84375,2.953125,2.828125,1.97241735458374,203200,0.0,
1991-08-29 00:00:00+00:00,2.921875,3.0,2.921875,1.98291015625,416800,0.0,
1991-08-30 00:00:00+00:00,2.96875,2.96875,2.90625,1.9619255065917969,236800,0.0,
1991-09-03 00:00:00+00:00,2.890625,2.890625,2.78125,1.8675014972686768,230400,0.0,
1991-09-04 00:00:00+00:00,2.765625,2.8125,2.75,1.857009768486023,175200,0.0,
1991-09-05 00:00:00+00:00,2.796875,2.828125,2.796875,1.888484001159668,309600,0.0,
1991-09-06 00:00:00+00:00,2.8125,2.828125,2.78125,1.8989763259887693,55200,0.0,
1991-09-09 00:00:00+00:00,2.8125,2.84375,2.8125,1.9094692468643188,8000,0.0,
1991-09-10 00:00:00+00:00,2.828125,2.84375,2.8125,1.9094692468643188,452800,0.0,
1991-09-11 00:00:00+00:00,2.828125,2.84375,2.8125,1.9094692468643188,145600,0.0,
1991-09-12 00:00:00+00:00,2.859375,2.859375,2.84375,1.9094692468643188,48000,0.0,
1991-09-13 00:00:00+00:00,2.875,2.875,2.828125,1.9094692468643188,366400,0.0,
1991-09-16 00:00:00+00:00,2.859375,2.859375,2.828125,1.9094692468643188,433600,0.0,
1991-09-17 00:00:00+00:00,2.84375,2.890625,2.84375,1.9409425258636477,648800,0.0,
1991-09-18 00:00:00+00:00,2.90625,2.9375,2.90625,1.97241735458374,136800,0.0,
1991-09-19 00:00:00+00:00,2.953125,3.03125,2.921875,2.035366535186768,153600,0.0,
1991-09-20 00:00:00+00:00,3.078125,3.078125,3.0,2.035366535186768,312000,0.0,
1991-09-23 00:00:00+00:00,3.0625,3.0625,2.96875,1.993401050567627,113600,0.0,
1991-09-24 00:00:00+00:00,2.96875,2.96875,2.875,1.9304510354995728,77600,0.0,
1991-09-25 00:00:00+00:00,2.890625,2.890625,2.875,1.9304510354995728,7200,0.0,
1991-09-26 00:00:00+00:00,2.90625,2.953125,2.875,1.98291015625,296000,0.0,
1991-09-27 00:00:00+00:00,2.96875,3.0,2.953125,1.993401050567627,70400,0.0,
1991-09-30 00:00:00+00:00,2.953125,2.984375,2.953125,2.003892421722412,229600,0.0,
1991-10-01 00:00:00+00:00,2.984375,3.0,2.859375,1.9199594259262085,1317600,0.0,
1991-10-02 00:00:00+00:00,2.84375,2.9375,2.84375,1.9514336585998533,740800,0.0,
1991-10-03 00:00:00+00:00,2.90625,2.90625,2.890625,1.9409425258636477,106400,0.0,
1991-10-04 00:00:00+00:00,2.875,2.890625,2.859375,1.9409425258636477,599200,0.0,
1991-10-07 00:00:00+00:00,2.875,2.9375,2.859375,1.97241735458374,973600,0.0,
1991-10-08 00:00:00+00:00,2.9375,2.953125,2.90625,1.976623058319092,735200,0.00625,
1991-10-09 00:00:00+00:00,2.9375,2.9375,2.90625,1.9555959701538088,43200,0.0,
1991-10-10 00:00:00+00:00,2.90625,2.921875,2.875,1.9555959701538088,144000,0.0,
1991-10-11 00:00:00+00:00,2.921875,2.921875,2.90625,1.9661085605621336,23200,0.0,
1991-10-14 00:00:00+00:00,2.9375,2.984375,2.9375,1.9976511001586916,32000,0.0,
1991-10-15 00:00:00+00:00,2.984375,3.015625,2.984375,2.029193162918091,181600,0.0,
1991-10-16 00:00:00+00:00,3.046875,3.078125,3.0,2.0186779499053955,104000,0.0,
1991-10-17 00:00:00+00:00,3.0,3.03125,2.984375,2.0397064685821533,89600,0.0,
1991-10-18 00:00:00+00:00,3.046875,3.046875,3.0,2.0186779499053955,87200,0.0,
1991-10-21 00:00:00+00:00,2.984375,2.984375,2.984375,2.008165121078491,3200,0.0,
1991-10-22 00:00:00+00:00,2.953125,2.953125,2.875,1.934567928314209,495200,0.0,
1991-10-23 00:00:00+00:00,2.953125,2.953125,2.890625,1.945082187652588,95200,0.0,
1991-10-24 00:00:00+00:00,2.875,2.875,2.84375,1.9135394096374512,35200,0.0,
1991-10-25 00:00:00+00:00,2.8125,2.8125,2.75,1.860969305038452,277600,0.0,
1991-10-28 00:00:00+00:00,2.75,2.84375,2.75,1.9135394096374512,181600,0.0,
1991-10-29 00:00:00+00:00,2.859375,2.859375,2.75,1.860969305038452,404800,0.0,
1991-10-30 00:00:00+00:00,2.78125,2.796875,2.78125,1.8819977045059204,12800,0.0,
1991-10-31 00:00:00+00:00,2.8125,2.84375,2.796875,1.9135394096374512,37600,0.0,
1991-11-01 00:00:00+00:00,2.859375,2.9375,2.84375,1.976623058319092,62400,0.0,
1991-11-04 00:00:00+00:00,2.921875,3.078125,2.921875,2.0397064685821533,624800,0.0,
1991-11-05 00:00:00+00:00,3.046875,3.140625,3.046875,2.0922772884368896,421600,0.0,
1991-11-06 00:00:00+00:00,3.140625,3.140625,3.03125,2.0397064685821533,228000,0.0,
1991-11-07 00:00:00+00:00,3.046875,3.046875,3.0,2.0397064685821533,206400,0.0,
1991-11-08 00:00:00+00:00,3.015625,3.0625,3.015625,2.0607354640960693,96800,0.0,
1991-11-11 00:00:00+00:00,3.0625,3.0625,3.03125,2.0397064685821533,20000,0.0,
1991-11-12 00:00:00+00:00,3.0,3.046875,3.0,2.0397064685821533,71200,0.0,
1991-11-13 00:00:00+00:00,3.03125,3.140625,3.03125,2.1027894020080566,127200,0.0,
1991-11-14 00:00:00+00:00,3.125,3.125,3.015625,2.0397064685821533,102400,0.0,
1991-11-15 00:00:00+00:00,3.015625,3.015625,2.890625,1.976623058319092,141600,0.0,
1991-11-18 00:00:00+00:00,2.9375,2.9375,2.875,1.934567928314209,236800,0.0,
1991-11-19 00:00:00+00:00,2.890625,2.890625,2.8125,1.8925120830535889,143200,0.0,
1991-11-20 00:00:00+00:00,2.796875,2.796875,2.78125,1.8714852333068848,144000,0.0,
1991-11-21 00:00:00+00:00,2.78125,2.84375,2.78125,1.8819977045059204,202400,0.0,
1991-11-22 00:00:00+00:00,2.78125,2.78125,2.75,1.850456714630127,97600,0.0,
1991-11-25 00:00:00+00:00,2.75,2.765625,2.75,1.860969305038452,16800,0.0,
1991-11-26 00:00:00+00:00,2.75,2.75,2.609375,1.7663445472717283,346400,0.0,
1991-11-27 00:00:00+00:00,2.640625,2.65625,2.625,1.7663445472717283,76800,0.0,
1991-11-29 00:00:00+00:00,2.640625,2.65625,2.640625,1.7873727083206177,28800,0.0,
1991-12-02 00:00:00+00:00,2.65625,2.671875,2.59375,1.7453162670135498,299200,0.0,
1991-12-03 00:00:00+00:00,2.59375,2.65625,2.59375,1.7873727083206177,97600,0.0,
1991-12-04 00:00:00+00:00,2.65625,2.65625,2.625,1.7663445472717283,20800,0.0,
1991-12-05 00:00:00+00:00,2.625,2.6875,2.625,1.77685809135437,96800,0.0,
1991-12-06 00:00:00+00:00,2.640625,2.65625,2.640625,1.77685809135437,858400,0.0,
1991-12-09 00:00:00+00:00,2.625,2.625,2.59375,1.7453162670135498,57600,0.0,
1991-12-10 00:00:00+00:00,2.5625,2.5625,2.484375,1.682232141494751,171200,0.0,
1991-12-11 00:00:00+00:00,2.515625,2.5625,2.453125,1.7137740850448608,415200,0.0,
1991-12-12 00:00:00+00:00,2.515625,2.53125,2.515625,1.7032597064971924,124000,0.0,
1991-12-13 00:00:00+00:00,2.53125,2.53125,2.5,1.682232141494751,319200,0.0,
1991-12-16 00:00:00+00:00,2.5,2.515625,2.484375,1.6927460432052612,372800,0.0,
1991-12-17 00:00:00+00:00,2.515625,2.53125,2.515625,1.7032597064971924,683200,0.0,
1991-12-18 00:00:00+00:00,2.546875,2.578125,2.546875,1.7348018884658811,112800,0.0,
1991-12-19 00:00:00+00:00,2.5625,2.5625,2.53125,1.7137740850448608,392800,0.0,
1991-12-20 00:00:00+00:00,2.53125,2.53125,2.5,1.6927460432052612,164800,0.0,
1991-12-23 00:00:00+00:00,2.5,2.5,2.421875,1.629662275314331,1115200,0.0,
1991-12-24 00:00:00+00:00,2.421875,2.515625,2.40625,1.6927460432052612,107200,0.0,
1991-12-26 00:00:00+00:00,2.5,2.515625,2.5,1.682232141494751,15200,0.0,
1991-12-27 00:00:00+00:00,2.5,2.5,2.46875,1.6612056493759155,48000,0.0,
1991-12-30 00:00:00+00:00,2.46875,2.46875,2.421875,1.6401771306991575,920800,0.0,
1991-12-31 00:00:00+00:00,2.4375,2.484375,2.421875,1.6401771306991575,116000,0.0,
1992-01-02 00:00:00+00:00,2.421875,2.421875,2.390625,1.6086338758468628,732000,0.0,
1992-01-03 00:00:00+00:00,2.390625,2.390625,2.375,1.598120927810669,277600,0.0,
1992-01-06 00:00:00+00:00,2.390625,2.390625,2.3125,1.5665793418884275,528000,0.0,
1992-01-07 00:00:00+00:00,2.3125,2.3125,2.140625,1.4404116868972778,584000,0.0,
1992-01-08 00:00:00+00:00,2.125,2.203125,2.109375,1.4298971891403198,692800,0.0,
1992-01-09 00:00:00+00:00,2.125,2.171875,2.109375,1.4614393711090088,348000,0.0,
1992-01-10 00:00:00+00:00,2.15625,2.234375,2.140625,1.5034953355789185,840800,0.0,
1992-01-13 00:00:00+00:00,2.234375,2.328125,2.234375,1.545551896095276,456000,0.0,
1992-01-14 00:00:00+00:00,2.296875,2.3125,2.21875,1.4929813146591189,281600,0.0,
1992-01-15 00:00:00+00:00,2.234375,2.296875,2.234375,1.53503680229187,377600,0.0,
1992-01-16 00:00:00+00:00,2.28125,2.328125,2.28125,1.5665793418884275,80800,0.0,
1992-01-17 00:00:00+00:00,2.359375,2.421875,2.359375,1.629662275314331,47200,0.0,
1992-01-20 00:00:00+00:00,2.421875,2.53125,2.421875,1.6927460432052612,91200,0.0,
1992-01-21 00:00:00+00:00,2.53125,2.546875,2.515625,1.6927460432052612,578400,0.0,
1992-01-22 00:00:00+00:00,2.515625,2.515625,2.484375,1.6717182397842407,300000,0.0,
1992-01-23 00:00:00+00:00,2.46875,2.5,2.453125,1.6506900787353516,313600,0.0,
1992-01-24 00:00:00+00:00,2.453125,2.453125,2.3125,1.5560649633407593,1104800,0.0,
1992-01-27 00:00:00+00:00,2.296875,2.296875,2.25,1.52452290058136,292800,0.0,
1992-01-28 00:00:00+00:00,2.265625,2.265625,2.1875,1.4719537496566772,2736800,0.0,
1992-01-29 00:00:00+00:00,2.203125,2.25,2.15625,1.4824665784835815,463200,0.0,
1992-01-30 00:00:00+00:00,2.140625,2.21875,2.140625,1.4719537496566772,405600,0.0,
1992-01-31 00:00:00+00:00,2.203125,2.296875,2.1875,1.51400887966156,714400,0.0,
1992-02-03 00:00:00+00:00,2.265625,2.265625,2.21875,1.5034953355789185,96800,0.0,
1992-02-04 00:00:00+00:00,2.21875,2.234375,2.1875,1.4824665784835815,355200,0.0,
1992-02-05 00:00:00+00:00,2.203125,2.203125,2.15625,1.4614393711090088,604000,0.0,
1992-02-06 00:00:00+00:00,2.1875,2.1875,2.09375,1.4088690280914309,492800,0.0,
1992-02-07 00:00:00+00:00,2.078125,2.21875,2.078125,1.4929813146591189,704000,0.0,
1992-02-10 00:00:00+00:00,2.234375,2.34375,2.234375,1.5665793418884275,782400,0.0,
1992-02-11 00:00:00+00:00,2.328125,2.34375,2.3125,1.5560649633407593,241600,0.0,
1992-02-12 00:00:00+00:00,2.3125,2.328125,2.28125,1.5560649633407593,446400,0.0,
1992-02-13 00:00:00+00:00,2.3125,2.3125,2.296875,1.545551896095276,161600,0.0,
1992-02-14 00:00:00+00:00,2.296875,2.328125,2.28125,1.5665793418884275,190400,0.0,
1992-02-18 00:00:00+00:00,2.3125,2.3125,2.28125,1.545551896095276,504800,0.0,
1992-02-19 00:00:00+00:00,2.28125,2.28125,2.265625,1.52452290058136,20800,0.0,
1992-02-20 00:00:00+00:00,2.265625,2.296875,2.265625,1.545551896095276,260800,0.0,
1992-02-21 00:00:00+00:00,2.296875,2.328125,2.296875,1.5560649633407593,311200,0.0,
1992-02-24 00:00:00+00:00,2.328125,2.34375,2.3125,1.5560649633407593,249600,0.0,
1992-02-25 00:00:00+00:00,2.3125,2.3125,2.28125,1.53503680229187,144000,0.0,
1992-02-26 00:00:00+00:00,2.265625,2.265625,2.25,1.52452290058136,835200,0.0,
1992-02-27 00:00:00+00:00,2.25,2.296875,2.25,1.52452290058136,67200,0.0,
1992-02-28 00:00:00+00:00,2.234375,2.265625,2.234375,1.5034953355789185,321600,0.0,
1992-03-02 00:00:00+00:00,2.25,2.296875,2.25,1.51400887966156,588800,0.0,
1992-03-03 00:00:00+00:00,2.265625,2.28125,2.25,1.51400887966156,608800,0.0,
1992-03-04 00:00:00+00:00,2.234375,2.25,2.234375,1.51400887966156,488000,0.0,
1992-03-05 00:00:00+00:00,2.265625,2.28125,2.265625,1.53503680229187,607200,0.0,
1992-03-06 00:00:00+00:00,2.28125,2.296875,2.28125,1.53503680229187,404800,0.0,
1992-03-09 00:00:00+00:00,2.28125,2.328125,2.28125,1.5665793418884275,348000,0.0,
1992-03-10 00:00:00+00:00,2.328125,2.40625,2.328125,1.6086338758468628,348000,0.0,
1992-03-11 00:00:00+00:00,2.40625,2.40625,2.390625,1.6191482543945312,376000,0.0,
1992-03-12 00:00:00+00:00,2.4375,2.4375,2.40625,1.6191482543945312,347200,0.0,
1992-03-13 00:00:00+00:00,2.4375,2.46875,2.421875,1.6612056493759155,138400,0.0,
1992-03-16 00:00:00+00:00,2.5,2.5,2.40625,1.6191482543945312,122400,0.0,
1992-03-17 00:00:00+00:00,2.4375,2.4375,2.421875,1.6401771306991575,569600,0.0,
1992-03-18 00:00:00+00:00,2.421875,2.421875,2.40625,1.6191482543945312,46400,0.0,
1992-03-19 00:00:00+00:00,2.4375,2.4375,2.375,1.6191482543945312,394400,0.0,
1992-03-20 00:00:00+00:00,2.46875,2.484375,2.453125,1.6612056493759155,232000,0.0,
1992-03-23 00:00:00+00:00,2.5,2.546875,2.5,1.682232141494751,545600,0.0,
1992-03-24 00:00:00+00:00,2.5,2.578125,2.5,1.7242882251739502,618400,0.0,
1992-03-25 00:00:00+00:00,2.578125,2.578125,2.5625,1.7348018884658811,116800,0.0,
1992-03-26 00:00:00+00:00,2.609375,2.734375,2.609375,1.8084007501602173,959200,0.0,
1992-03-27 00:00:00+00:00,2.625,2.65625,2.609375,1.7663445472717283,236800,0.0,
1992-03-30 00:00:00+00:00,2.625,2.625,2.609375,1.7663445472717283,324800,0.0,
1992-03-31 00:00:00+00:00,2.640625,2.65625,2.640625,1.7873727083206177,307200,0.0,
1992-04-01 00:00:00+00:00,2.65625,2.65625,2.609375,1.7558308839797974,172800,0.0,
1992-04-02 00:00:00+00:00,2.609375,2.609375,2.578125,1.7453162670135498,878400,0.0,
1992-04-03 00:00:00+00:00,2.5625,2.5625,2.546875,1.7242882251739502,109600,0.0,
1992-04-06 00:00:00+00:00,2.578125,2.734375,2.578125,1.839941382408142,336000,0.0,
1992-04-07 00:00:00+00:00,2.734375,2.734375,2.6875,1.8084007501602173,612000,0.0,
1992-04-08 00:00:00+00:00,2.671875,2.671875,2.625,1.7663445472717283,771200,0.0,
1992-04-09 00:00:00+00:00,2.609375,2.75,2.609375,1.854872822761536,170400,0.00625,
1992-04-10 00:00:00+00:00,2.734375,2.75,2.734375,1.844332695007324,213600,0.0,
1992-04-13 00:00:00+00:00,2.765625,2.78125,2.75,1.865410327911377,141600,0.0,
1992-04-14 00:00:00+00:00,2.78125,2.8125,2.78125,1.8970288038253784,228000,0.0,
1992-04-15 00:00:00+00:00,2.8125,2.828125,2.8125,1.9075677394866943,312000,0.0,
1992-04-16 00:00:00+00:00,2.8125,2.828125,2.8125,1.8970288038253784,39200,0.0,
1992-04-20 00:00:00+00:00,2.8125,2.890625,2.8125,1.9497246742248533,245600,0.0,
1992-04-21 00:00:00+00:00,2.921875,2.921875,2.875,1.9602622985839844,337600,0.0,
1992-04-22 00:00:00+00:00,2.890625,2.890625,2.875,1.939184665679932,8800,0.0,
1992-04-23 00:00:00+00:00,2.875,2.984375,2.84375,1.939184665679932,1366400,0.0,
1992-04-24 00:00:00+00:00,3.03125,3.171875,3.0,2.0234971046447754,687200,0.0,
1992-04-27 00:00:00+00:00,3.0625,3.09375,3.03125,2.0551137924194336,511200,0.0,
1992-04-28 00:00:00+00:00,3.046875,3.046875,3.015625,2.044574737548828,234400,0.0,
1992-04-29 00:00:00+00:00,3.046875,3.046875,3.03125,2.044574737548828,237600,0.0,
1992-04-30 00:00:00+00:00,3.046875,3.0625,3.03125,2.0551137924194336,1008800,0.0,
1992-05-01 00:00:00+00:00,3.03125,3.046875,3.03125,2.0551137924194336,146400,0.0,
1992-05-04 00:00:00+00:00,3.0625,3.078125,3.0625,2.0656538009643555,251200,0.0,
1992-05-05 00:00:00+00:00,3.046875,3.078125,3.046875,2.076192617416382,532000,0.0,
1992-05-06 00:00:00+00:00,3.078125,3.078125,3.015625,2.0340359210968018,792800,0.0,
1992-05-07 00:00:00+00:00,3.015625,3.015625,2.96875,2.0024185180664062,61600,0.0,
1992-05-08 00:00:00+00:00,3.0,3.0,2.9375,1.991879940032959,42400,0.0,
1992-05-11 00:00:00+00:00,2.953125,2.953125,2.90625,1.9602622985839844,91200,0.0,
1992-05-12 00:00:00+00:00,2.921875,2.921875,2.75,1.8864891529083248,1191200,0.0,
1992-05-13 00:00:00+00:00,2.796875,2.796875,2.765625,1.865410327911377,261600,0.0,
1992-05-14 00:00:00+00:00,2.765625,2.84375,2.6875,1.918107271194458,1236800,0.0,
1992-05-15 00:00:00+00:00,2.828125,2.90625,2.8125,1.9497246742248533,509600,0.0,
1992-05-18 00:00:00+00:00,2.90625,3.015625,2.90625,2.0234971046447754,431200,0.0,
1992-05-19 00:00:00+00:00,3.0,3.046875,2.953125,2.0551137924194336,572000,0.0,
1992-05-20 00:00:00+00:00,3.0625,3.09375,3.0625,2.0867316722869877,200800,0.0,
1992-05-21 00:00:00+00:00,3.078125,3.15625,3.078125,2.0867316722869877,946400,0.0,
1992-05-22 00:00:00+00:00,3.09375,3.15625,3.078125,2.118347644805908,230400,0.0,
1992-05-26 00:00:00+00:00,3.140625,3.1875,3.125,2.149965763092041,1300800,0.0,
1992-05-27 00:00:00+00:00,3.203125,3.25,3.125,2.1078085899353027,1122400,0.0,
1992-05-28 00:00:00+00:00,3.140625,3.140625,3.078125,2.1078085899353027,627200,0.0,
1992-05-29 00:00:00+00:00,3.125,3.125,3.078125,2.0867316722869877,368800,0.0,
1992-06-01 00:00:00+00:00,3.078125,3.171875,3.078125,2.1394262313842773,348800,0.0,
1992-06-02 00:00:00+00:00,3.140625,3.15625,3.125,2.118347644805908,108000,0.0,
1992-06-03 00:00:00+00:00,3.15625,3.1875,3.125,2.12888765335083,1278400,0.0,
1992-06-04 00:00:00+00:00,3.125,3.140625,3.125,2.118347644805908,1169600,0.0,
1992-06-05 00:00:00+00:00,3.15625,3.1875,3.140625,2.149965763092041,816800,0.0,
1992-06-08 00:00:00+00:00,3.21875,3.375,3.21875,2.2342772483825684,1822400,0.0,
1992-06-09 00:00:00+00:00,3.3125,3.34375,3.28125,2.2342772483825684,2077600,0.0,
1992-06-10 00:00:00+00:00,3.3125,3.3125,3.21875,2.213200569152832,778400,0.0,
1992-06-11 00:00:00+00:00,3.28125,3.40625,3.28125,2.29751205444336,438400,0.0,
1992-06-12 00:00:00+00:00,3.375,3.375,3.34375,2.255355834960937,2042400,0.0,
1992-06-15 00:00:00+00:00,3.328125,3.328125,3.296875,2.2342772483825684,2438400,0.0,
1992-06-16 00:00:00+00:00,3.328125,3.328125,3.296875,2.2237389087677,660800,0.0,
1992-06-17 00:00:00+00:00,3.3125,3.3125,3.21875,2.181582450866699,673600,0.0,
1992-06-18 00:00:00+00:00,3.21875,3.265625,3.21875,2.181582450866699,948800,0.0,
1992-06-19 00:00:00+00:00,3.25,3.265625,3.234375,2.181582450866699,417600,0.0,
1992-06-22 00:00:00+00:00,3.203125,3.21875,3.203125,2.1605048179626465,568000,0.0,
1992-06-23 00:00:00+00:00,3.203125,3.21875,3.203125,2.1605048179626465,518400,0.0,
1992-06-24 00:00:00+00:00,3.21875,3.21875,3.171875,2.1710424423217773,224000,0.0,
1992-06-25 00:00:00+00:00,3.21875,3.21875,3.125,2.1078085899353027,307200,0.0,
1992-06-26 00:00:00+00:00,3.125,3.140625,3.109375,2.118347644805908,629600,0.0,
1992-06-29 00:00:00+00:00,3.125,3.1875,3.125,2.1394262313842773,1169600,0.0,
1992-06-30 00:00:00+00:00,3.1875,3.1875,3.15625,2.149965763092041,1156800,0.0,
1992-07-01 00:00:00+00:00,3.21875,3.25,3.203125,2.1921215057373047,694400,0.0,
1992-07-02 00:00:00+00:00,3.28125,3.296875,3.25,2.213200569152832,2007200,0.0,
1992-07-06 00:00:00+00:00,3.3125,3.328125,3.296875,2.2342772483825684,771200,0.0,
1992-07-07 00:00:00+00:00,3.3125,3.359375,3.3125,2.244816303253174,655200,0.0,
1992-07-08 00:00:00+00:00,3.328125,3.34375,3.3125,2.244816303253174,480800,0.0,
1992-07-09 00:00:00+00:00,3.34375,3.375,3.328125,2.2701575756073,424000,0.00625,
1992-07-10 00:00:00+00:00,3.390625,3.390625,3.328125,2.2490406036376958,568800,0.0,
1992-07-13 00:00:00+00:00,3.328125,3.359375,3.328125,2.2701575756073,624800,0.0,
1992-07-14 00:00:00+00:00,3.390625,3.625,3.390625,2.417982339859009,627200,0.0,
1992-07-15 00:00:00+00:00,3.59375,3.609375,3.515625,2.386306047439575,465600,0.0,
1992-07-16 00:00:00+00:00,3.5,3.5,3.390625,2.312394142150879,143200,0.0,
1992-07-17 00:00:00+00:00,3.4375,3.453125,3.421875,2.32295298576355,45600,0.0,
1992-07-20 00:00:00+00:00,3.4375,3.453125,3.390625,2.2912769317626958,645600,0.0,
1992-07-21 00:00:00+00:00,3.390625,3.421875,3.390625,2.301835536956787,224000,0.0,
1992-07-22 00:00:00+00:00,3.40625,3.484375,3.40625,2.3546295166015625,235200,0.0,
1992-07-23 00:00:00+00:00,3.5,3.515625,3.46875,2.3651885986328125,112000,0.0,
1992-07-24 00:00:00+00:00,3.5,3.609375,3.5,2.4391002655029297,329600,0.0,
1992-07-27 00:00:00+00:00,3.609375,3.609375,3.5625,2.428541660308838,66400,0.0,
1992-07-28 00:00:00+00:00,3.59375,3.59375,3.53125,2.40742301940918,91200,0.0,
1992-07-29 00:00:00+00:00,3.5625,3.578125,3.546875,2.417982339859009,84800,0.0,
1992-07-30 00:00:00+00:00,3.5625,3.640625,3.5625,2.4602179527282715,565600,0.0,
1992-07-31 00:00:00+00:00,3.640625,3.65625,3.625,2.4602179527282715,500800,0.0,
1992-08-03 00:00:00+00:00,3.625,3.703125,3.625,2.502453088760376,492000,0.0,
1992-08-04 00:00:00+00:00,3.6875,3.71875,3.6875,2.513012409210205,398400,0.0,
1992-08-05 00:00:00+00:00,3.59375,3.59375,3.375,2.301835536956787,268800,0.0,
1992-08-06 00:00:00+00:00,3.25,3.265625,3.171875,2.1962454319000244,1166400,0.0,
1992-08-07 00:00:00+00:00,3.25,3.515625,3.25,2.3757455348968506,996000,0.0,
1992-08-10 00:00:00+00:00,3.515625,3.5625,3.5,2.3968653678894043,88000,0.0,
1992-08-11 00:00:00+00:00,3.546875,3.5625,3.546875,2.3968653678894043,2608000,0.0,
1992-08-12 00:00:00+00:00,3.5625,3.59375,3.5625,2.428541660308838,92800,0.0,
1992-08-13 00:00:00+00:00,3.625,3.734375,3.609375,2.523571014404297,684800,0.0,
1992-08-14 00:00:00+00:00,3.78125,3.84375,3.734375,2.5341296195983887,1344000,0.0,
1992-08-17 00:00:00+00:00,3.71875,3.71875,3.671875,2.491894245147705,1498400,0.0,
1992-08-18 00:00:00+00:00,3.671875,3.6875,3.578125,2.428541660308838,823200,0.0,
1992-08-19 00:00:00+00:00,3.5,3.6875,3.5,2.40742301940918,844800,0.0,
1992-08-20 00:00:00+00:00,3.625,3.640625,3.5625,2.428541660308838,7611200,0.0,
1992-08-21 00:00:00+00:00,3.609375,3.640625,3.59375,2.428541660308838,1631200,0.0,
1992-08-24 00:00:00+00:00,3.578125,3.609375,3.578125,2.417982339859009,1412000,0.0,
1992-08-25 00:00:00+00:00,3.578125,3.71875,3.578125,2.4813356399536133,1002400,0.0,
1992-08-26 00:00:00+00:00,3.6875,3.75,3.6875,2.5341296195983887,1988000,0.0,
1992-08-27 00:00:00+00:00,3.734375,3.796875,3.71875,2.555248022079468,872800,0.0,
1992-08-28 00:00:00+00:00,3.8125,3.9375,3.8125,2.6608364582061768,1732800,0.0,
1992-08-31 00:00:00+00:00,3.90625,3.984375,3.84375,2.618600606918335,1392800,0.0,
1992-09-01 00:00:00+00:00,3.875,3.9375,3.859375,2.6397194862365723,740000,0.0,
1992-09-02 00:00:00+00:00,3.9375,3.953125,3.875,2.6291604042053223,458400,0.0,
1992-09-03 00:00:00+00:00,3.90625,3.921875,3.890625,2.650277614593506,617600,0.0,
1992-09-04 00:00:00+00:00,3.921875,3.96875,3.921875,2.671394109725952,190400,0.0,
1992-09-08 00:00:00+00:00,3.953125,4.09375,3.953125,2.755865335464477,1150400,0.0,
1992-09-09 00:00:00+00:00,4.078125,4.09375,4.0625,2.766425371170044,660000,0.0,
1992-09-10 00:00:00+00:00,4.09375,4.109375,4.0625,2.755865335464477,809600,0.0,
1992-09-11 00:00:00+00:00,4.078125,4.109375,4.0625,2.7769837379455566,549600,0.0,
1992-09-14 00:00:00+00:00,4.140625,4.171875,4.109375,2.7875452041625977,684000,0.0,
1992-09-15 00:00:00+00:00,4.125,4.140625,4.109375,2.7769837379455566,557600,0.0,
1992-09-16 00:00:00+00:00,4.109375,4.171875,4.09375,2.7875452041625977,723200,0.0,
1992-09-17 00:00:00+00:00,4.125,4.28125,4.125,2.8508968353271484,565600,0.0,
1992-09-18 00:00:00+00:00,4.1875,4.3125,4.1875,2.9142496585845947,668000,0.0,
1992-09-21 00:00:00+00:00,4.328125,4.34375,4.328125,2.935366630554199,808000,0.0,
1992-09-22 00:00:00+00:00,4.3125,4.375,4.296875,2.94592547416687,662400,0.0,
1992-09-23 00:00:00+00:00,4.375,4.46875,4.359375,2.956485748291016,898400,0.0,
1992-09-24 00:00:00+00:00,4.390625,4.484375,4.390625,3.019838571548462,1256800,0.0,
1992-09-25 00:00:00+00:00,4.421875,4.4375,4.203125,2.872014045715332,1837600,0.0,
1992-09-28 00:00:00+00:00,4.25,4.25,4.109375,2.7875452041625977,1749600,0.0,
1992-09-29 00:00:00+00:00,4.203125,4.234375,4.171875,2.86145567893982,276800,0.0,
1992-09-30 00:00:00+00:00,4.21875,4.234375,4.15625,2.8086605072021484,330400,0.0,
1992-10-01 00:00:00+00:00,4.140625,4.140625,4.03125,2.724189043045044,378400,0.0,
1992-10-02 00:00:00+00:00,4.046875,4.078125,4.015625,2.734748601913452,772800,0.0,
1992-10-05 00:00:00+00:00,4.046875,4.046875,3.953125,2.6819546222686768,312000,0.0,
1992-10-06 00:00:00+00:00,3.96875,3.96875,3.90625,2.6608364582061768,885600,0.0,
1992-10-07 00:00:00+00:00,3.953125,4.015625,3.953125,2.692513227462769,649600,0.0,
1992-10-08 00:00:00+00:00,3.96875,4.0625,3.96875,2.7073192596435547,266400,0.00625,
1992-10-09 00:00:00+00:00,3.96875,4.03125,3.90625,2.6650171279907227,112000,0.0,
1992-10-12 00:00:00+00:00,3.9375,3.953125,3.9375,2.67559027671814,351200,0.0,
1992-10-13 00:00:00+00:00,3.9375,3.953125,3.890625,2.6650171279907227,412000,0.0,
1992-10-14 00:00:00+00:00,3.9375,3.953125,3.921875,2.6650171279907227,341600,0.0,
1992-10-15 00:00:00+00:00,3.9375,3.9375,3.90625,2.6438663005828857,205600,0.0,
1992-10-16 00:00:00+00:00,3.921875,4.078125,3.921875,2.749620199203491,1151200,0.0,
1992-10-19 00:00:00+00:00,4.0625,4.3125,4.0625,2.897677183151245,756000,0.0,
1992-10-20 00:00:00+00:00,4.265625,4.265625,4.203125,2.8553762435913086,209600,0.0,
1992-10-21 00:00:00+00:00,4.203125,4.203125,4.140625,2.813074350357056,104800,0.0,
1992-10-22 00:00:00+00:00,4.140625,4.140625,3.953125,2.67559027671814,365600,0.0,
1992-10-23 00:00:00+00:00,3.96875,3.96875,3.9375,2.67559027671814,101600,0.0,
1992-10-26 00:00:00+00:00,3.953125,4.015625,3.953125,2.7073192596435547,396800,0.0,
1992-10-27 00:00:00+00:00,3.984375,3.984375,3.8125,2.6121397018432617,318400,0.0,
1992-10-28 00:00:00+00:00,3.859375,3.859375,3.71875,2.590989112854004,920800,0.0,
1992-10-29 00:00:00+00:00,3.828125,3.90625,3.828125,2.601564884185791,348000,0.0,
1992-10-30 00:00:00+00:00,3.875,3.875,3.8125,2.5804131031036377,143200,0.0,
1992-11-02 00:00:00+00:00,3.828125,3.875,3.828125,2.6227152347564697,156800,0.0,
1992-11-03 00:00:00+00:00,3.875,3.875,3.75,2.5381124019622803,296800,0.0,
1992-11-04 00:00:00+00:00,3.765625,3.78125,3.65625,2.474658966064453,464000,0.0,
1992-11-05 00:00:00+00:00,3.625,3.625,3.46875,2.358328342437744,1245600,0.0,
1992-11-06 00:00:00+00:00,3.53125,3.671875,3.53125,2.474658966064453,1823200,0.0,
1992-11-09 00:00:00+00:00,3.625,3.65625,3.5,2.400630235671997,1322400,0.0,
1992-11-10 00:00:00+00:00,3.5625,3.625,3.5625,2.453507900238037,1669600,0.0,
1992-11-11 00:00:00+00:00,3.625,3.625,3.5625,2.4112062454223637,551200,0.0,
1992-11-12 00:00:00+00:00,3.625,3.640625,3.5625,2.421780586242676,1320800,0.0,
1992-11-13 00:00:00+00:00,3.609375,3.640625,3.59375,2.453507900238037,324000,0.0,
1992-11-16 00:00:00+00:00,3.609375,3.65625,3.609375,2.474658966064453,257600,0.0,
1992-11-17 00:00:00+00:00,3.625,3.640625,3.625,2.453507900238037,304000,0.0,
1992-11-18 00:00:00+00:00,3.625,3.640625,3.625,2.464082717895508,693600,0.0,
1992-11-19 00:00:00+00:00,3.609375,3.640625,3.46875,2.3689041137695312,821600,0.0,
1992-11-20 00:00:00+00:00,3.53125,3.59375,3.53125,2.432356834411621,536800,0.0,
1992-11-23 00:00:00+00:00,3.5625,3.671875,3.5625,2.453507900238037,660000,0.0,
1992-11-24 00:00:00+00:00,3.609375,3.609375,3.578125,2.432356834411621,503200,0.0,
1992-11-25 00:00:00+00:00,3.578125,3.609375,3.578125,2.432356834411621,96000,0.0,
1992-11-27 00:00:00+00:00,3.59375,3.625,3.578125,2.453507900238037,230400,0.0,
1992-11-30 00:00:00+00:00,3.625,3.625,3.53125,2.400630235671997,539200,0.0,
1992-12-01 00:00:00+00:00,3.546875,3.546875,3.53125,2.390054941177368,1116800,0.0,
1992-12-02 00:00:00+00:00,3.53125,3.578125,3.53125,2.421780586242676,721600,0.0,
1992-12-03 00:00:00+00:00,3.5625,3.5625,3.421875,2.3266024589538574,1191200,0.0,
1992-12-04 00:00:00+00:00,3.4375,3.5,3.421875,2.3689041137695312,1249600,0.0,
1992-12-07 00:00:00+00:00,3.484375,3.546875,3.484375,2.3689041137695312,167200,0.0,
1992-12-08 00:00:00+00:00,3.5,3.515625,3.453125,2.358328342437744,580000,0.0,
1992-12-09 00:00:00+00:00,3.5,3.546875,3.484375,2.390054941177368,374400,0.0,
1992-12-10 00:00:00+00:00,3.546875,3.609375,3.484375,2.4429330825805664,1601600,0.0,
1992-12-11 00:00:00+00:00,3.65625,3.703125,3.65625,2.48523473739624,151200,0.0,
1992-12-14 00:00:00+00:00,3.671875,3.671875,3.609375,2.474658966064453,920000,0.0,
1992-12-15 00:00:00+00:00,3.640625,3.640625,3.609375,2.453507900238037,406400,0.0,
1992-12-16 00:00:00+00:00,3.609375,3.625,3.59375,2.432356834411621,402400,0.0,
1992-12-17 00:00:00+00:00,3.609375,3.609375,3.5625,2.4112062454223637,52800,0.0,
1992-12-18 00:00:00+00:00,3.59375,3.59375,3.578125,2.432356834411621,295200,0.0,
1992-12-21 00:00:00+00:00,3.578125,3.578125,3.546875,2.400630235671997,488000,0.0,
1992-12-22 00:00:00+00:00,3.5625,3.5625,3.53125,2.400630235671997,960800,0.0,
1992-12-23 00:00:00+00:00,3.546875,3.546875,3.515625,2.379479169845581,1008000,0.0,
1992-12-24 00:00:00+00:00,3.546875,3.59375,3.53125,2.432356834411621,655200,0.0,
1992-12-28 00:00:00+00:00,3.578125,3.578125,3.53125,2.400630235671997,97600,0.0,
1992-12-29 00:00:00+00:00,3.546875,3.59375,3.53125,2.4112062454223637,596000,0.0,
1992-12-30 00:00:00+00:00,3.578125,3.578125,3.546875,2.400630235671997,639200,0.0,
1992-12-31 00:00:00+00:00,3.5625,3.6875,3.5625,2.48523473739624,376000,0.0,
1993-01-04 00:00:00+00:00,3.6875,3.71875,3.609375,2.4429330825805664,597600,0.0,
1993-01-05 00:00:00+00:00,3.609375,3.6875,3.578125,2.49580979347229,715200,0.0,
1993-01-06 00:00:00+00:00,3.6875,3.6875,3.59375,2.4429330825805664,928800,0.0,
1993-01-07 00:00:00+00:00,3.609375,3.609375,3.5625,2.421780586242676,333600,0.0,
1993-01-08 00:00:00+00:00,3.578125,3.578125,3.46875,2.3477537631988525,1617600,0.0,
1993-01-11 00:00:00+00:00,3.484375,3.484375,3.375,2.299849271774292,410400,0.0075,
1993-01-12 00:00:00+00:00,3.390625,3.40625,3.359375,2.310445785522461,269600,0.0,
1993-01-13 00:00:00+00:00,3.40625,3.484375,3.359375,2.352841377258301,826400,0.0,
1993-01-14 00:00:00+00:00,3.4375,3.453125,3.34375,2.2680532932281494,619200,0.0,
1993-01-15 00:00:00+00:00,3.375,3.421875,3.359375,2.299849271774292,1232800,0.0,
1993-01-18 00:00:00+00:00,3.390625,3.390625,3.359375,2.289249897003174,460000,0.0,
1993-01-19 00:00:00+00:00,3.359375,3.484375,3.359375,2.3422422409057617,1157600,0.0,
1993-01-20 00:00:00+00:00,3.453125,3.484375,3.4375,2.352841377258301,132800,0.0,
1993-01-21 00:00:00+00:00,3.4375,3.5,3.4375,2.374037027359009,272800,0.0,
1993-01-22 00:00:00+00:00,3.515625,3.59375,3.5,2.437626838684082,540800,0.0,
1993-01-25 00:00:00+00:00,3.578125,3.703125,3.578125,2.50121808052063,969600,0.0,
1993-01-26 00:00:00+00:00,3.8125,3.875,3.78125,2.564807415008545,1224000,0.0,
1993-01-27 00:00:00+00:00,3.734375,3.765625,3.703125,2.543611764907837,636000,0.0,
1993-01-28 00:00:00+00:00,3.765625,3.90625,3.75,2.649595260620117,773600,0.0,
1993-01-29 00:00:00+00:00,3.90625,4.0,3.890625,2.691988945007324,492800,0.0,
1993-02-01 00:00:00+00:00,4.0,4.078125,4.0,2.75557804107666,1876800,0.0,
1993-02-02 00:00:00+00:00,4.046875,4.09375,4.046875,2.776776075363159,1044000,0.0,
1993-02-03 00:00:00+00:00,4.09375,4.359375,4.09375,2.914555788040161,1448000,0.0,
1993-02-04 00:00:00+00:00,4.328125,4.4375,4.328125,3.0099406242370605,1330400,0.0,
1993-02-05 00:00:00+00:00,4.4375,4.515625,4.4375,3.0523335933685303,1606400,0.0,
1993-02-08 00:00:00+00:00,4.5,4.5,4.46875,3.0523335933685303,1975200,0.0,
1993-02-09 00:00:00+00:00,4.5,4.5,4.40625,2.999340057373047,756000,0.0,
1993-02-10 00:00:00+00:00,4.421875,4.453125,4.359375,2.9675464630126958,800000,0.0,
1993-02-11 00:00:00+00:00,4.359375,4.5,4.359375,3.041734218597412,971200,0.0,
1993-02-12 00:00:00+00:00,4.484375,4.484375,4.46875,3.041734218597412,932000,0.0,
1993-02-16 00:00:00+00:00,4.46875,4.46875,4.34375,2.9463486671447754,292800,0.0,
1993-02-17 00:00:00+00:00,4.359375,4.40625,4.34375,2.97814416885376,632800,0.0,
1993-02-18 00:00:00+00:00,4.421875,4.484375,4.421875,3.0099406242370605,604800,0.0,
1993-02-19 00:00:00+00:00,4.4375,4.515625,4.421875,3.0523335933685303,3408800,0.0,
1993-02-22 00:00:00+00:00,4.5,4.609375,4.5,3.094725608825684,1140000,0.0,
1993-02-23 00:00:00+00:00,4.59375,4.59375,4.5,3.0841288566589355,664000,0.0,
1993-02-24 00:00:00+00:00,4.515625,4.515625,4.46875,3.041734218597412,499200,0.0,
1993-02-25 00:00:00+00:00,4.484375,4.484375,4.359375,2.9569478034973145,259200,0.0,
1993-02-26 00:00:00+00:00,4.390625,4.421875,4.359375,2.9887423515319824,128000,0.0,
1993-03-01 00:00:00+00:00,4.4375,4.53125,4.421875,3.0099406242370605,1396000,0.0,
1993-03-02 00:00:00+00:00,4.46875,4.484375,4.4375,3.020538091659546,332800,0.0,
1993-03-03 00:00:00+00:00,4.46875,4.84375,4.46875,3.24310302734375,4088800,0.0,
1993-03-04 00:00:00+00:00,4.75,4.78125,4.640625,3.211310625076294,913600,0.0,
1993-03-05 00:00:00+00:00,4.71875,4.734375,4.6875,3.1795127391815186,335200,0.0,
1993-03-08 00:00:00+00:00,4.703125,4.796875,4.703125,3.24310302734375,472000,0.0,
1993-03-09 00:00:00+00:00,4.796875,4.796875,4.75,3.24310302734375,324000,0.0,
1993-03-10 00:00:00+00:00,4.78125,4.8125,4.734375,3.264299869537353,199200,0.0,
1993-03-11 00:00:00+00:00,4.8125,4.921875,4.796875,3.317293882369995,213600,0.0,
1993-03-12 00:00:00+00:00,4.921875,4.921875,4.796875,3.285496234893799,702400,0.0,
1993-03-15 00:00:00+00:00,4.84375,4.875,4.84375,3.3066935539245605,209600,0.0,
1993-03-16 00:00:00+00:00,4.859375,4.875,4.84375,3.2960968017578125,316800,0.0,
1993-03-17 00:00:00+00:00,4.875,4.984375,4.859375,3.3808841705322266,136800,0.0,
1993-03-18 00:00:00+00:00,4.96875,5.0,4.921875,3.3914811611175537,444000,0.0,
1993-03-19 00:00:00+00:00,4.984375,5.0,4.96875,3.37028431892395,300800,0.0,
1993-03-22 00:00:00+00:00,4.984375,5.0,4.96875,3.3808841705322266,640800,0.0,
1993-03-23 00:00:00+00:00,5.015625,5.015625,4.96875,3.37028431892395,100800,0.0,
1993-03-24 00:00:00+00:00,4.96875,5.078125,4.96875,3.37028431892395,574400,0.0,
1993-03-25 00:00:00+00:00,4.90625,4.921875,4.84375,3.285496234893799,1020000,0.0,
1993-03-26 00:00:00+00:00,4.84375,4.921875,4.8125,3.3278908729553223,753600,0.0,
1993-03-29 00:00:00+00:00,4.921875,4.984375,4.921875,3.3808841705322266,589600,0.0,
1993-03-30 00:00:00+00:00,5.0,5.03125,5.0,3.412679433822632,663200,0.0,
1993-03-31 00:00:00+00:00,5.03125,5.03125,4.96875,3.4020822048187256,558400,0.0,
1993-04-01 00:00:00+00:00,5.03125,5.03125,4.984375,3.3914811611175537,537600,0.0,
1993-04-02 00:00:00+00:00,4.953125,4.953125,4.859375,3.317293882369995,240800,0.0,
1993-04-05 00:00:00+00:00,4.90625,4.90625,4.875,3.3278908729553223,292800,0.0,
1993-04-06 00:00:00+00:00,4.90625,4.90625,4.875,3.3066935539245605,604800,0.0,
1993-04-07 00:00:00+00:00,4.84375,4.875,4.8125,3.3066935539245605,860000,0.0,
1993-04-08 00:00:00+00:00,4.859375,4.875,4.859375,3.31178879737854,24000,0.0075,
1993-04-12 00:00:00+00:00,4.859375,4.96875,4.859375,3.3754758834838867,325600,0.0,
1993-04-13 00:00:00+00:00,4.96875,5.03125,4.84375,3.31178879737854,1076800,0.0,
1993-04-14 00:00:00+00:00,4.890625,4.890625,4.84375,3.290559768676758,447200,0.0,
1993-04-15 00:00:00+00:00,4.875,4.921875,4.8125,3.26932954788208,231200,0.0,
1993-04-16 00:00:00+00:00,4.828125,4.84375,4.796875,3.290559768676758,356800,0.0,
1993-04-19 00:00:00+00:00,4.828125,4.890625,4.828125,3.31178879737854,173600,0.0,
1993-04-20 00:00:00+00:00,4.90625,5.0625,4.90625,3.3860955238342285,1133600,0.0,
1993-04-21 00:00:00+00:00,5.015625,5.015625,4.875,3.31178879737854,185600,0.0,
1993-04-22 00:00:00+00:00,4.84375,4.84375,4.671875,3.1737964153289795,335200,0.0,
1993-04-23 00:00:00+00:00,4.671875,4.671875,4.46875,3.0570387840271,786400,0.0,
1993-04-26 00:00:00+00:00,4.53125,4.640625,4.515625,3.1419548988342285,367200,0.0,
1993-04-27 00:00:00+00:00,4.65625,4.65625,4.625,3.1525700092315674,108000,0.0,
1993-04-28 00:00:00+00:00,4.625,4.640625,4.625,3.1525700092315674,189600,0.0,
1993-04-29 00:00:00+00:00,4.65625,4.75,4.625,3.226872682571411,383200,0.0,
1993-04-30 00:00:00+00:00,4.75,4.96875,4.75,3.343632698059082,779200,0.0,
1993-05-03 00:00:00+00:00,4.953125,4.984375,4.953125,3.36486291885376,249600,0.0,
1993-05-04 00:00:00+00:00,4.921875,4.953125,4.90625,3.343632698059082,1332800,0.0,
1993-05-05 00:00:00+00:00,4.921875,4.9375,4.921875,3.343632698059082,65600,0.0,
1993-05-06 00:00:00+00:00,4.921875,5.0,4.921875,3.3542468547821045,664800,0.0,
1993-05-07 00:00:00+00:00,4.921875,4.96875,4.90625,3.343632698059082,186400,0.0,
1993-05-10 00:00:00+00:00,4.9375,4.9375,4.8125,3.26932954788208,828000,0.0,
1993-05-11 00:00:00+00:00,4.78125,4.953125,4.78125,3.3542468547821045,1120800,0.0,
1993-05-12 00:00:00+00:00,4.9375,4.984375,4.90625,3.36486291885376,852000,0.0,
1993-05-13 00:00:00+00:00,4.90625,5.09375,4.90625,3.4391674995422363,702400,0.0,
1993-05-14 00:00:00+00:00,5.0625,5.265625,5.0625,3.5134682655334477,931200,0.0,
1993-05-17 00:00:00+00:00,5.171875,5.203125,5.15625,3.534698724746704,390400,0.0,
1993-05-18 00:00:00+00:00,5.203125,5.328125,5.203125,3.59838604927063,340800,0.0,
1993-05-19 00:00:00+00:00,5.3125,5.3125,5.1875,3.5559275150299072,412800,0.0,
1993-05-20 00:00:00+00:00,5.21875,5.25,5.21875,3.5559275150299072,216000,0.0,
1993-05-21 00:00:00+00:00,5.234375,5.234375,5.203125,3.5453128814697266,400000,0.0,
1993-05-24 00:00:00+00:00,5.25,5.25,5.21875,3.5559275150299072,496000,0.0,
1993-05-25 00:00:00+00:00,5.1875,5.25,5.171875,3.524085283279419,400800,0.0,
1993-05-26 00:00:00+00:00,5.1875,5.203125,5.15625,3.534698724746704,188000,0.0,
1993-05-27 00:00:00+00:00,5.203125,5.3125,5.203125,3.609002113342285,511200,0.0,
1993-05-28 00:00:00+00:00,5.296875,5.3125,5.28125,3.609002113342285,473600,0.0,
1993-06-01 00:00:00+00:00,5.34375,5.4375,5.328125,3.6726903915405273,619200,0.0,
1993-06-02 00:00:00+00:00,5.40625,5.625,5.40625,3.77883505821228,522400,0.0,
1993-06-03 00:00:00+00:00,5.5625,5.5625,5.484375,3.746992588043213,403200,0.0,
1993-06-04 00:00:00+00:00,5.5,5.515625,5.484375,3.736377954483032,889600,0.0,
1993-06-07 00:00:00+00:00,5.5,5.515625,5.484375,3.736377954483032,482400,0.0,
1993-06-08 00:00:00+00:00,5.484375,5.484375,5.421875,3.693918704986572,277600,0.0,
1993-06-09 00:00:00+00:00,5.40625,5.5,5.40625,3.736377954483032,262400,0.0,
1993-06-10 00:00:00+00:00,5.484375,5.484375,5.4375,3.693918704986572,779200,0.0,
1993-06-11 00:00:00+00:00,5.40625,5.40625,5.234375,3.5559275150299072,606400,0.0,
1993-06-14 00:00:00+00:00,5.21875,5.21875,5.125,3.481625556945801,763200,0.0,
1993-06-15 00:00:00+00:00,5.125,5.15625,5.125,3.481625556945801,288800,0.0,
1993-06-16 00:00:00+00:00,5.140625,5.203125,5.140625,3.534698724746704,219200,0.0,
1993-06-17 00:00:00+00:00,5.21875,5.328125,5.21875,3.5665409564971924,193600,0.0,
1993-06-18 00:00:00+00:00,5.28125,5.296875,5.265625,3.577156782150269,224800,0.0,
1993-06-21 00:00:00+00:00,5.28125,5.359375,5.28125,3.630230665206909,292800,0.0,
1993-06-22 00:00:00+00:00,5.34375,5.34375,5.265625,3.577156782150269,1112000,0.0,
1993-06-23 00:00:00+00:00,5.265625,5.296875,5.265625,3.59838604927063,2466400,0.0,
1993-06-24 00:00:00+00:00,5.296875,5.296875,5.0625,3.481625556945801,637600,0.0,
1993-06-25 00:00:00+00:00,5.125,5.125,5.109375,3.481625556945801,36000,0.0,
1993-06-28 00:00:00+00:00,5.125,5.140625,5.125,3.492238998413086,204800,0.0,
1993-06-29 00:00:00+00:00,5.109375,5.125,4.984375,3.4285480976104736,648000,0.0,
1993-06-30 00:00:00+00:00,5.0625,5.09375,5.03125,3.4603934288024902,552000,0.0,
1993-07-01 00:00:00+00:00,5.078125,5.078125,5.015625,3.4285480976104736,376800,0.0,
1993-07-02 00:00:00+00:00,5.0625,5.0625,5.015625,3.4285480976104736,100000,0.0,
1993-07-06 00:00:00+00:00,5.046875,5.09375,5.0,3.396707057952881,437600,0.0,
1993-07-07 00:00:00+00:00,4.96875,5.078125,4.96875,3.44978141784668,1369600,0.0,
1993-07-08 00:00:00+00:00,5.078125,5.1875,5.078125,3.524085283279419,955200,0.0,
1993-07-09 00:00:00+00:00,5.171875,5.25,5.171875,3.571707010269165,1352000,0.0075,
1993-07-12 00:00:00+00:00,5.28125,5.34375,5.28125,3.614226818084717,900000,0.0,
1993-07-13 00:00:00+00:00,5.3125,5.3125,5.28125,3.5929648876190186,100000,0.0,
1993-07-14 00:00:00+00:00,5.28125,5.3125,5.28125,3.5929648876190186,538400,0.0,
1993-07-15 00:00:00+00:00,5.3125,5.3125,5.21875,3.571707010269165,338400,0.0,
1993-07-16 00:00:00+00:00,5.25,5.265625,5.234375,3.571707010269165,147200,0.0,
1993-07-19 00:00:00+00:00,5.296875,5.296875,5.25,3.5929648876190186,417600,0.0,
1993-07-20 00:00:00+00:00,5.25,5.3125,5.25,3.614226818084717,713600,0.0,
1993-07-21 00:00:00+00:00,5.3125,5.34375,5.3125,3.614226818084717,395200,0.0,
1993-07-22 00:00:00+00:00,5.3125,5.3125,5.28125,3.603595733642578,314400,0.0,
1993-07-23 00:00:00+00:00,5.296875,5.3125,5.25,3.614226818084717,341600,0.0,
1993-07-26 00:00:00+00:00,5.34375,5.34375,5.296875,3.603595733642578,196000,0.0,
1993-07-27 00:00:00+00:00,5.265625,5.28125,5.21875,3.571707010269165,191200,0.0,
1993-07-28 00:00:00+00:00,5.25,5.296875,5.234375,3.582337617874145,356800,0.0,
1993-07-29 00:00:00+00:00,5.265625,5.3125,5.25,3.603595733642578,98400,0.0,
1993-07-30 00:00:00+00:00,5.3125,5.328125,5.3125,3.624856948852539,57600,0.0,
1993-08-02 00:00:00+00:00,5.328125,5.46875,5.3125,3.720527648925781,1029600,0.0,
1993-08-03 00:00:00+00:00,5.484375,5.578125,5.484375,3.784308671951294,356000,0.0,
1993-08-04 00:00:00+00:00,5.546875,5.65625,5.546875,3.826826810836792,400000,0.0,
1993-08-05 00:00:00+00:00,5.609375,5.640625,5.609375,3.826826810836792,56000,0.0,
1993-08-06 00:00:00+00:00,5.625,5.625,5.578125,3.8055672645568848,348800,0.0,
1993-08-09 00:00:00+00:00,5.609375,5.6875,5.609375,3.869348526000977,344800,0.0,
1993-08-10 00:00:00+00:00,5.6875,5.75,5.6875,3.9118690490722656,632800,0.0,
1993-08-11 00:00:00+00:00,5.78125,6.0,5.78125,4.081951141357422,784800,0.0,
1993-08-12 00:00:00+00:00,6.0,6.21875,5.984375,4.092581748962402,1103200,0.0,
1993-08-13 00:00:00+00:00,6.03125,6.03125,5.9375,4.039431571960449,226400,0.0,
1993-08-16 00:00:00+00:00,5.9375,5.984375,5.9375,4.071319103240967,448000,0.0,
1993-08-17 00:00:00+00:00,6.0625,6.25,6.0625,4.252031326293945,640000,0.0,
1993-08-18 00:00:00+00:00,6.234375,6.484375,6.234375,4.368964195251465,805600,0.0,
1993-08-19 00:00:00+00:00,6.4375,6.46875,6.3125,4.294552326202393,424000,0.0,
1993-08-20 00:00:00+00:00,6.3125,6.453125,6.3125,4.39022159576416,914400,0.0,
1993-08-23 00:00:00+00:00,6.46875,6.703125,6.453125,4.560306072235107,964800,0.0,
1993-08-24 00:00:00+00:00,6.703125,6.703125,6.53125,4.464634895324707,704000,0.0,
1993-08-25 00:00:00+00:00,6.5625,6.578125,6.4375,4.39022159576416,753600,0.0,
1993-08-26 00:00:00+00:00,6.453125,6.453125,6.25,4.28392219543457,817600,0.0,
1993-08-27 00:00:00+00:00,6.28125,6.28125,6.03125,4.166993141174316,627200,0.0,
1993-08-30 00:00:00+00:00,6.125,6.25,6.109375,4.230771064758301,529600,0.0,
1993-08-31 00:00:00+00:00,6.234375,6.328125,6.171875,4.273290634155273,888000,0.0,
1993-09-01 00:00:00+00:00,6.28125,6.390625,6.28125,4.337075233459473,388800,0.0,
1993-09-02 00:00:00+00:00,6.375,6.375,6.28125,4.273290634155273,286400,0.0,
1993-09-03 00:00:00+00:00,6.28125,6.328125,6.28125,4.28392219543457,135200,0.0,
1993-09-07 00:00:00+00:00,6.296875,6.328125,6.125,4.166993141174316,236800,0.0,
1993-09-08 00:00:00+00:00,6.125,6.125,5.953125,4.050060272216797,388800,0.0,
1993-09-09 00:00:00+00:00,5.953125,5.984375,5.921875,4.060689926147461,533600,0.0,
1993-09-10 00:00:00+00:00,5.96875,5.984375,5.953125,4.071319103240967,121600,0.0,
1993-09-13 00:00:00+00:00,5.984375,6.03125,5.921875,4.028800964355469,472800,0.0,
1993-09-14 00:00:00+00:00,5.953125,5.96875,5.90625,4.039431571960449,633600,0.0,
1993-09-15 00:00:00+00:00,5.9375,6.046875,5.921875,4.081951141357422,994400,0.0,
1993-09-16 00:00:00+00:00,6.0,6.03125,6.0,4.081951141357422,152800,0.0,
1993-09-17 00:00:00+00:00,5.96875,5.96875,5.890625,4.039431571960449,127200,0.0,
1993-09-20 00:00:00+00:00,5.9375,5.96875,5.9375,4.060689926147461,248000,0.0,
1993-09-21 00:00:00+00:00,5.96875,6.03125,5.96875,4.092581748962402,218400,0.0,
1993-09-22 00:00:00+00:00,6.0,6.03125,5.96875,4.060689926147461,99200,0.0,
1993-09-23 00:00:00+00:00,5.984375,5.984375,5.953125,4.071319103240967,232800,0.0,
1993-09-24 00:00:00+00:00,5.96875,6.0,5.953125,4.060689926147461,357600,0.0,
1993-09-27 00:00:00+00:00,5.953125,6.0,5.953125,4.071319103240967,441600,0.0,
1993-09-28 00:00:00+00:00,5.984375,5.984375,5.921875,4.039431571960449,326400,0.0,
1993-09-29 00:00:00+00:00,5.9375,6.453125,5.9375,4.39022159576416,1200800,0.0,
1993-09-30 00:00:00+00:00,6.453125,6.625,6.453125,4.507153034210205,755200,0.0,
1993-10-01 00:00:00+00:00,6.59375,6.71875,6.59375,4.570934295654297,599200,0.0,
1993-10-04 00:00:00+00:00,6.71875,6.75,6.640625,4.517781734466553,248000,0.0,
1993-10-05 00:00:00+00:00,6.65625,6.65625,6.578125,4.475263595581055,122400,0.0,
1993-10-06 00:00:00+00:00,6.578125,6.578125,6.5,4.44337272644043,114400,0.0,
1993-10-07 00:00:00+00:00,6.5,6.5,6.4375,4.411483287811279,224000,0.0,
1993-10-08 00:00:00+00:00,6.484375,6.484375,6.40625,4.374021053314209,245600,0.0075,
1993-10-11 00:00:00+00:00,6.421875,6.421875,6.25,4.256954669952393,288000,0.0,
1993-10-12 00:00:00+00:00,6.25,6.25,6.125,4.171817302703857,272800,0.0,
1993-10-13 00:00:00+00:00,6.078125,6.109375,5.96875,4.076034069061279,826400,0.0,
1993-10-14 00:00:00+00:00,6.09375,6.125,6.0,4.107961177825928,388000,0.0,
1993-10-15 00:00:00+00:00,6.0,6.0,5.828125,4.001537799835205,707200,0.0,
1993-10-18 00:00:00+00:00,5.875,5.875,5.71875,3.9163970947265625,719200,0.0,
1993-10-19 00:00:00+00:00,5.75,5.875,5.484375,3.9696123600006095,1467200,0.0,
1993-10-20 00:00:00+00:00,5.796875,5.796875,5.3125,3.6184120178222656,1626400,0.0,
1993-10-21 00:00:00+00:00,5.4375,5.6875,5.4375,3.746119260787964,3216000,0.0,
1993-10-22 00:00:00+00:00,5.5,5.5,5.375,3.660982131958008,928800,0.0,
1993-10-25 00:00:00+00:00,5.375,5.421875,5.28125,3.597125768661499,901600,0.0,
1993-10-26 00:00:00+00:00,5.28125,5.3125,5.0,3.426849126815796,1536800,0.0,
1993-10-27 00:00:00+00:00,5.0625,5.1875,5.0625,3.533273220062256,1416000,0.0,
1993-10-28 00:00:00+00:00,5.1875,5.453125,5.1875,3.7141942977905273,1215200,0.0,
1993-10-29 00:00:00+00:00,5.421875,5.46875,5.328125,3.639697790145874,412800,0.0,
1993-11-01 00:00:00+00:00,5.359375,5.484375,5.34375,3.7141942977905273,379200,0.0,
1993-11-02 00:00:00+00:00,5.453125,5.578125,5.453125,3.7886908054351807,553600,0.0,
1993-11-03 00:00:00+00:00,5.609375,5.671875,5.578125,3.831258535385132,540800,0.0,
1993-11-04 00:00:00+00:00,5.65625,5.734375,5.625,3.831258535385132,345600,0.0,
1993-11-05 00:00:00+00:00,5.625,5.625,5.53125,3.7886908054351807,112800,0.0,
1993-11-08 00:00:00+00:00,5.5625,5.5625,5.46875,3.724836587905884,207200,0.0,
1993-11-09 00:00:00+00:00,5.46875,5.46875,5.1875,3.5545599460601807,542400,0.0,
1993-11-10 00:00:00+00:00,5.25,5.28125,5.21875,3.58648419380188,191200,0.0,
1993-11-11 00:00:00+00:00,5.28125,5.40625,5.203125,3.5545599460601807,564800,0.0,
1993-11-12 00:00:00+00:00,5.203125,5.203125,5.0625,3.5439136028289795,1202400,0.0,
1993-11-15 00:00:00+00:00,5.203125,5.234375,5.140625,3.5013465881347656,675200,0.0,
1993-11-16 00:00:00+00:00,4.96875,4.984375,4.875,3.362994432449341,827200,0.0,
1993-11-17 00:00:00+00:00,5.0,5.203125,4.9375,3.5439136028289795,1617600,0.0,
1993-11-18 00:00:00+00:00,5.203125,5.359375,5.15625,3.607769727706909,463200,0.0,
1993-11-19 00:00:00+00:00,5.25,5.265625,5.21875,3.58648419380188,85600,0.0,
1993-11-22 00:00:00+00:00,5.25,5.25,5.078125,3.4587743282318115,173600,0.0,
1993-11-23 00:00:00+00:00,5.109375,5.21875,5.078125,3.4694178104400635,697600,0.0,
1993-11-24 00:00:00+00:00,5.109375,5.15625,5.109375,3.5119879245758057,556800,0.0,
1993-11-26 00:00:00+00:00,5.125,5.125,5.03125,3.426849126815796,94400,0.0,
1993-11-29 00:00:00+00:00,4.96875,4.96875,4.828125,3.28849720954895,1270400,0.0,
1993-11-30 00:00:00+00:00,4.84375,4.859375,4.78125,3.28849720954895,457600,0.0,
1993-12-01 00:00:00+00:00,4.859375,4.921875,4.828125,3.309783458709717,316000,0.0,
1993-12-02 00:00:00+00:00,4.84375,4.90625,4.84375,3.309783458709717,429600,0.0,
1993-12-03 00:00:00+00:00,4.875,4.90625,4.875,3.3204236030578613,142400,0.0,
1993-12-06 00:00:00+00:00,4.875,4.90625,4.84375,3.3310670852661133,308800,0.0,
1993-12-07 00:00:00+00:00,4.875,4.953125,4.859375,3.341710090637207,528800,0.0,
1993-12-08 00:00:00+00:00,4.890625,4.890625,4.84375,3.309783458709717,89600,0.0,
1993-12-09 00:00:00+00:00,4.859375,4.859375,4.71875,3.2565701007843018,69600,0.0,
1993-12-10 00:00:00+00:00,4.796875,4.84375,4.796875,3.28849720954895,271200,0.0,
1993-12-13 00:00:00+00:00,4.859375,4.859375,4.71875,3.2459285259246826,102400,0.0,
1993-12-14 00:00:00+00:00,4.796875,4.8125,4.734375,3.27785587310791,620800,0.0,
1993-12-15 00:00:00+00:00,4.765625,4.765625,4.71875,3.224644899368286,128000,0.0,
1993-12-16 00:00:00+00:00,4.75,4.84375,4.75,3.2565701007843018,565600,0.0,
1993-12-17 00:00:00+00:00,4.796875,4.8125,4.734375,3.2352852821350098,200800,0.0,
1993-12-20 00:00:00+00:00,4.71875,4.71875,4.40625,3.075648784637451,927200,0.0,
1993-12-21 00:00:00+00:00,4.546875,4.546875,4.265625,3.022437334060669,880000,0.0,
1993-12-22 00:00:00+00:00,4.453125,4.75,4.40625,3.224644899368286,676000,0.0,
1993-12-23 00:00:00+00:00,4.703125,4.796875,4.703125,3.2352852821350098,176000,0.0,
1993-12-27 00:00:00+00:00,4.6875,4.890625,4.6875,3.309783458709717,1060000,0.0,
1993-12-28 00:00:00+00:00,4.890625,4.921875,4.8125,3.27785587310791,629600,0.0,
1993-12-29 00:00:00+00:00,4.828125,4.890625,4.828125,3.309783458709717,648000,0.0,
1993-12-30 00:00:00+00:00,4.84375,4.859375,4.828125,3.309783458709717,270400,0.0,
1993-12-31 00:00:00+00:00,4.859375,4.875,4.828125,3.3204236030578613,112800,0.0,
1994-01-03 00:00:00+00:00,4.875,4.875,4.828125,3.3204236030578613,332000,0.0,
1994-01-04 00:00:00+00:00,4.84375,4.890625,4.84375,3.3310670852661133,202400,0.0,
1994-01-05 00:00:00+00:00,4.96875,5.25,4.96875,3.5439136028289795,800000,0.0,
1994-01-06 00:00:00+00:00,5.234375,5.484375,5.234375,3.7141942977905273,999200,0.0,
1994-01-07 00:00:00+00:00,5.46875,5.46875,5.40625,3.7035508155822754,704800,0.0,
1994-01-10 00:00:00+00:00,5.421875,5.640625,5.421875,3.8472087383270255,573600,0.0075,
1994-01-11 00:00:00+00:00,5.59375,5.59375,5.453125,3.751293182373047,1028800,0.0,
1994-01-12 00:00:00+00:00,5.5,5.53125,5.390625,3.6873509883880615,296000,0.0,
1994-01-13 00:00:00+00:00,5.40625,5.421875,5.3125,3.623409986495972,10779200,0.0,
1994-01-14 00:00:00+00:00,5.28125,5.328125,5.15625,3.5168392658233643,1295200,0.0,
1994-01-17 00:00:00+00:00,5.25,5.3125,5.21875,3.6127524375915527,1098400,0.0,
1994-01-18 00:00:00+00:00,5.3125,5.4375,5.3125,3.70866584777832,851200,0.0,
1994-01-19 00:00:00+00:00,5.46875,5.609375,5.46875,3.7619495391845694,1249600,0.0,
1994-01-20 00:00:00+00:00,5.515625,5.5625,5.359375,3.6553797721862793,487200,0.0,
1994-01-21 00:00:00+00:00,5.390625,5.421875,5.34375,3.666037797927856,354400,0.0,
1994-01-24 00:00:00+00:00,5.390625,5.40625,5.3125,3.623409986495972,408800,0.0,
1994-01-25 00:00:00+00:00,5.3125,5.328125,5.296875,3.623409986495972,284000,0.0,
1994-01-26 00:00:00+00:00,5.3125,5.40625,5.265625,3.666037797927856,873600,0.0,
1994-01-27 00:00:00+00:00,5.375,5.5625,5.375,3.783266544342041,1322400,0.0,
1994-01-28 00:00:00+00:00,5.5,5.515625,5.484375,3.751293182373047,303200,0.0,
1994-01-31 00:00:00+00:00,5.53125,5.671875,5.515625,3.7619495391845694,787200,0.0,
1994-02-01 00:00:00+00:00,5.546875,5.625,5.546875,3.825894355773926,700800,0.0,
1994-02-02 00:00:00+00:00,5.578125,5.9375,5.578125,3.932464838027954,999200,0.0,
1994-02-03 00:00:00+00:00,5.8125,5.8125,5.734375,3.9218053817749023,155200,0.0,
1994-02-04 00:00:00+00:00,5.78125,5.828125,5.703125,3.900495767593384,1171200,0.0,
1994-02-07 00:00:00+00:00,5.671875,5.671875,5.609375,3.836551189422608,363200,0.0,
1994-02-08 00:00:00+00:00,5.625,5.75,5.59375,3.9111504554748535,355200,0.0,
1994-02-09 00:00:00+00:00,5.734375,5.734375,5.59375,3.857868194580078,272800,0.0,
1994-02-10 00:00:00+00:00,5.65625,5.65625,5.5,3.751293182373047,944800,0.0,
1994-02-11 00:00:00+00:00,5.53125,5.71875,5.5,3.879182100296021,212800,0.0,
1994-02-14 00:00:00+00:00,5.6875,5.6875,5.40625,3.751293182373047,335200,0.0,
1994-02-15 00:00:00+00:00,5.46875,5.53125,5.46875,3.751293182373047,137600,0.0,
1994-02-16 00:00:00+00:00,5.46875,5.484375,5.375,3.666037797927856,541600,0.0,
1994-02-17 00:00:00+00:00,5.390625,5.46875,5.34375,3.6447248458862314,538400,0.0,
1994-02-18 00:00:00+00:00,5.375,5.390625,5.328125,3.6447248458862314,437600,0.0,
1994-02-22 00:00:00+00:00,5.375,5.40625,5.359375,3.666037797927856,83200,0.0,
1994-02-23 00:00:00+00:00,5.34375,5.4375,5.34375,3.6980092525482178,152000,0.0,
1994-02-24 00:00:00+00:00,5.421875,5.4375,5.375,3.70866584777832,108800,0.0,
1994-02-25 00:00:00+00:00,5.5,5.5625,5.46875,3.729981184005737,848800,0.0,
1994-02-28 00:00:00+00:00,5.46875,5.46875,5.375,3.666037797927856,57600,0.0,
1994-03-01 00:00:00+00:00,5.40625,5.40625,5.34375,3.666037797927856,180000,0.0,
1994-03-02 00:00:00+00:00,5.34375,5.34375,5.28125,3.623409986495972,310400,0.0,
1994-03-03 00:00:00+00:00,5.328125,5.34375,5.296875,3.623409986495972,92800,0.0,
1994-03-04 00:00:00+00:00,5.296875,5.40625,5.296875,3.6766953468322754,196800,0.0,
1994-03-07 00:00:00+00:00,5.40625,5.40625,5.34375,3.6447248458862314,268800,0.0,
1994-03-08 00:00:00+00:00,5.3125,5.328125,5.234375,3.5701241493225098,516800,0.0,
1994-03-09 00:00:00+00:00,5.203125,5.203125,4.96875,3.4315826892852783,609600,0.0,
1994-03-10 00:00:00+00:00,5.015625,5.046875,4.921875,3.3676390647888184,894400,0.0,
1994-03-11 00:00:00+00:00,4.953125,5.03125,4.921875,3.420924425125122,410400,0.0,
1994-03-14 00:00:00+00:00,5.015625,5.1875,5.015625,3.5274977684021,308800,0.0,
1994-03-15 00:00:00+00:00,5.21875,5.328125,5.21875,3.602094411849976,446400,0.0,
1994-03-16 00:00:00+00:00,5.265625,5.296875,5.25,3.602094411849976,458400,0.0,
1994-03-17 00:00:00+00:00,5.265625,5.515625,5.265625,3.740636110305786,423200,0.0,
1994-03-18 00:00:00+00:00,5.53125,5.6875,5.5,3.879182100296021,879200,0.0,
1994-03-21 00:00:00+00:00,5.71875,5.734375,5.671875,3.900495767593384,813600,0.0,
1994-03-22 00:00:00+00:00,5.6875,5.8125,5.6875,3.953779697418213,1078400,0.0,
1994-03-23 00:00:00+00:00,5.6875,5.6875,5.625,3.868521928787232,722400,0.0,
1994-03-24 00:00:00+00:00,5.59375,5.65625,5.5625,3.836551189422608,674400,0.0,
1994-03-25 00:00:00+00:00,5.609375,5.671875,5.609375,3.836551189422608,510400,0.0,
1994-03-28 00:00:00+00:00,5.609375,5.609375,5.4375,3.70866584777832,1590400,0.0,
1994-03-29 00:00:00+00:00,5.421875,5.421875,5.25,3.580780506134033,617600,0.0,
1994-03-30 00:00:00+00:00,5.234375,5.328125,5.109375,3.623409986495972,567200,0.0,
1994-03-31 00:00:00+00:00,5.3125,5.34375,5.265625,3.6447248458862314,148800,0.0,
1994-04-04 00:00:00+00:00,5.3125,5.3125,5.25,3.591438055038452,445600,0.0,
1994-04-05 00:00:00+00:00,5.28125,5.328125,5.234375,3.580780506134033,940000,0.0,
1994-04-06 00:00:00+00:00,5.3125,5.375,5.21875,3.666037797927856,240000,0.0,
1994-04-07 00:00:00+00:00,5.375,5.4375,5.34375,3.6447248458862314,574400,0.0,
1994-04-08 00:00:00+00:00,5.328125,5.34375,5.3125,3.6447248458862314,169600,0.0,
1994-04-11 00:00:00+00:00,5.3125,5.3125,5.265625,3.617831230163574,698400,0.0075,
1994-04-12 00:00:00+00:00,5.3125,5.40625,5.3125,3.671189785003662,1101600,0.0,
1994-04-13 00:00:00+00:00,5.375,5.4375,5.359375,3.713878870010376,604000,0.0,
1994-04-14 00:00:00+00:00,5.390625,5.53125,5.359375,3.7779109477996826,1280800,0.0,
1994-04-15 00:00:00+00:00,5.53125,5.875,5.46875,4.012697696685791,826400,0.0,
1994-04-18 00:00:00+00:00,5.8125,5.8125,5.6875,3.959336519241333,1331200,0.0,
1994-04-19 00:00:00+00:00,5.78125,5.8125,5.734375,3.916646957397461,704000,0.0,
1994-04-20 00:00:00+00:00,5.71875,5.71875,5.703125,3.905976295471192,727200,0.0,
1994-04-21 00:00:00+00:00,5.703125,5.765625,5.703125,3.9273202419281006,480000,0.0,
1994-04-22 00:00:00+00:00,5.734375,5.796875,5.71875,3.937991380691528,332000,0.0,
1994-04-25 00:00:00+00:00,5.765625,5.9375,5.734375,4.055385112762451,498400,0.0,
1994-04-26 00:00:00+00:00,5.9375,5.96875,5.9375,4.076730251312256,1096000,0.0,
1994-04-28 00:00:00+00:00,5.953125,6.015625,5.9375,4.06605863571167,856800,0.0,
1994-04-29 00:00:00+00:00,5.9375,5.9375,5.890625,4.055385112762451,535200,0.0,
1994-05-02 00:00:00+00:00,5.90625,5.953125,5.890625,4.06605863571167,652000,0.0,
1994-05-03 00:00:00+00:00,5.9375,5.9375,5.859375,4.012697696685791,560800,0.0,
1994-05-04 00:00:00+00:00,5.875,5.9375,5.875,4.055385112762451,358400,0.0,
1994-05-05 00:00:00+00:00,5.96875,5.96875,5.921875,4.044713020324707,66400,0.0,
1994-05-06 00:00:00+00:00,5.921875,6.125,5.921875,4.162103652954102,343200,0.0,
1994-05-09 00:00:00+00:00,6.109375,6.109375,6.03125,4.151432991027832,453600,0.0,
1994-05-10 00:00:00+00:00,6.140625,6.140625,6.09375,4.162103652954102,632800,0.0,
1994-05-11 00:00:00+00:00,6.09375,6.109375,6.03125,4.119418144226074,187200,0.0,
1994-05-12 00:00:00+00:00,6.046875,6.15625,6.03125,4.194122314453125,806400,0.0,
1994-05-13 00:00:00+00:00,6.109375,6.125,6.109375,4.183450698852539,257600,0.0,
1994-05-16 00:00:00+00:00,6.140625,6.140625,6.109375,4.172779083251953,293600,0.0,
1994-05-17 00:00:00+00:00,6.09375,6.09375,5.890625,4.06605863571167,1044000,0.0,
1994-05-18 00:00:00+00:00,5.96875,5.984375,5.90625,4.076730251312256,1417600,0.0,
1994-05-19 00:00:00+00:00,5.984375,5.984375,5.890625,4.023369312286377,205600,0.0,
1994-05-20 00:00:00+00:00,5.90625,5.90625,5.8125,3.980681419372559,309600,0.0,
1994-05-23 00:00:00+00:00,5.796875,5.8125,5.765625,3.937991380691528,208800,0.0,
1994-05-24 00:00:00+00:00,5.75,5.75,5.703125,3.895303249359131,287200,0.0,
1994-05-25 00:00:00+00:00,5.71875,5.71875,5.65625,3.863288640975952,179200,0.0,
1994-05-26 00:00:00+00:00,5.59375,5.625,5.515625,3.7885830402374263,840800,0.0,
1994-05-27 00:00:00+00:00,5.5625,5.59375,5.53125,3.8099284172058105,70400,0.0,
1994-05-31 00:00:00+00:00,5.546875,5.578125,5.5,3.756566047668457,752800,0.0,
1994-06-01 00:00:00+00:00,5.5,5.546875,5.5,3.767237424850464,480800,0.0,
1994-06-02 00:00:00+00:00,5.5,5.53125,5.46875,3.7352240085601807,600000,0.0,
1994-06-03 00:00:00+00:00,5.453125,5.453125,5.34375,3.7032065391540527,136800,0.0,
1994-06-06 00:00:00+00:00,5.5,5.5,5.453125,3.7352240085601807,132800,0.0,
1994-06-07 00:00:00+00:00,5.46875,5.578125,5.46875,3.799257278442383,863200,0.0,
1994-06-08 00:00:00+00:00,5.5625,5.5625,5.4375,3.7352240085601807,276800,0.0,
1994-06-09 00:00:00+00:00,5.4375,5.4375,5.375,3.671189785003662,304800,0.0,
1994-06-10 00:00:00+00:00,5.375,5.578125,5.375,3.8099284172058105,165600,0.0,
1994-06-13 00:00:00+00:00,5.578125,5.703125,5.578125,3.884632349014282,736800,0.0,
1994-06-14 00:00:00+00:00,5.703125,5.75,5.703125,3.9273202419281006,476000,0.0,
1994-06-15 00:00:00+00:00,5.75,5.78125,5.71875,3.916646957397461,292000,0.0,
1994-06-16 00:00:00+00:00,5.71875,5.78125,5.71875,3.948665142059326,132000,0.0,
1994-06-17 00:00:00+00:00,5.75,5.90625,5.75,4.034039974212647,384000,0.0,
1994-06-20 00:00:00+00:00,5.9375,5.9375,5.75,3.991351127624512,174800,0.0,
1994-06-21 00:00:00+00:00,5.78125,5.90625,5.78125,4.034039974212647,166400,0.0,
1994-06-22 00:00:00+00:00,5.96875,5.96875,5.875,4.034039974212647,52800,0.0,
1994-06-23 00:00:00+00:00,5.96875,5.96875,5.75,3.9273202419281006,197200,0.0,
1994-06-24 00:00:00+00:00,5.75,5.75,5.59375,3.905976295471192,143200,0.0,
1994-06-27 00:00:00+00:00,5.6875,5.75,5.625,3.905976295471192,136800,0.0,
1994-06-28 00:00:00+00:00,5.65625,5.71875,5.59375,3.905976295471192,190800,0.0,
1994-06-29 00:00:00+00:00,5.71875,5.75,5.65625,3.9273202419281006,94800,0.0,
1994-06-30 00:00:00+00:00,5.6875,5.75,5.59375,3.9273202419281006,440400,0.0,
1994-07-01 00:00:00+00:00,5.75,5.75,5.625,3.863288640975952,150400,0.0,
1994-07-05 00:00:00+00:00,5.6875,5.6875,5.5,3.756566047668457,72400,0.0,
1994-07-06 00:00:00+00:00,5.5,5.6875,5.46875,3.884632349014282,182800,0.0,
1994-07-07 00:00:00+00:00,5.71875,5.71875,5.59375,3.8205974102020255,36000,0.0,
1994-07-08 00:00:00+00:00,5.5625,5.59375,5.5,3.756566047668457,24000,0.0,
1994-07-11 00:00:00+00:00,5.53125,5.5625,5.5,3.804442167282105,51600,0.0075,
1994-07-12 00:00:00+00:00,5.5625,5.59375,5.5,3.804442167282105,98800,0.0,
1994-07-13 00:00:00+00:00,5.59375,5.65625,5.40625,3.761694669723511,277200,0.0,
1994-07-14 00:00:00+00:00,5.53125,5.53125,5.4375,3.71895170211792,72800,0.0,
1994-07-15 00:00:00+00:00,5.40625,5.40625,5.34375,3.6762053966522217,68800,0.0,
1994-07-18 00:00:00+00:00,5.4375,5.46875,5.3125,3.740323781967163,261600,0.0,
1994-07-19 00:00:00+00:00,5.4375,5.4375,5.375,3.6762053966522217,143200,0.0,
1994-07-20 00:00:00+00:00,5.40625,5.40625,5.3125,3.633456468582153,31600,0.0,
1994-07-21 00:00:00+00:00,5.1875,5.34375,5.1875,3.654830455780029,230800,0.0,
1994-07-22 00:00:00+00:00,5.3125,5.3125,5.1875,3.569336414337158,37600,0.0,
1994-07-25 00:00:00+00:00,5.25,5.25,5.03125,3.4410977363586426,187200,0.0,
1994-07-26 00:00:00+00:00,5.0625,5.0625,4.9375,3.398350715637207,230000,0.0,
1994-07-27 00:00:00+00:00,5.0,5.03125,4.90625,3.376978874206543,551200,0.0,
1994-07-28 00:00:00+00:00,4.9375,5.0,4.9375,3.4197239875793457,342800,0.0,
1994-07-29 00:00:00+00:00,5.0,5.0,4.96875,3.398350715637207,209600,0.0,
1994-08-01 00:00:00+00:00,4.9375,5.0,4.9375,3.4197239875793457,620000,0.0,
1994-08-02 00:00:00+00:00,4.96875,5.0,4.9375,3.4197239875793457,216400,0.0,
1994-08-03 00:00:00+00:00,4.96875,5.03125,4.90625,3.4197239875793457,430800,0.0,
1994-08-04 00:00:00+00:00,4.96875,5.0625,4.9375,3.4197239875793457,156400,0.0,
1994-08-05 00:00:00+00:00,4.96875,5.0,4.78125,3.270110845565796,233200,0.0,
1994-08-08 00:00:00+00:00,4.84375,4.90625,4.8125,3.3128576278686523,731600,0.0,
1994-08-09 00:00:00+00:00,4.8125,5.0,4.78125,3.4197239875793457,1479200,0.0,
1994-08-10 00:00:00+00:00,5.0625,5.125,5.03125,3.4624714851379395,600000,0.0,
1994-08-11 00:00:00+00:00,5.03125,5.09375,4.96875,3.398350715637207,326800,0.0,
1994-08-12 00:00:00+00:00,4.96875,5.03125,4.9375,3.4197239875793457,558400,0.0,
1994-08-15 00:00:00+00:00,5.0,5.0625,4.96875,3.398350715637207,71600,0.0,
1994-08-16 00:00:00+00:00,5.0,5.0,4.9375,3.376978874206543,300800,0.0,
1994-08-17 00:00:00+00:00,4.9375,5.0,4.90625,3.398350715637207,148800,0.0,
1994-08-18 00:00:00+00:00,4.96875,4.96875,4.90625,3.376978874206543,228400,0.0,
1994-08-19 00:00:00+00:00,4.9375,4.953125,4.90625,3.3556036949157715,330400,0.0,
1994-08-22 00:00:00+00:00,4.9375,4.9375,4.8125,3.2914843559265137,137200,0.0,
1994-08-23 00:00:00+00:00,4.875,4.90625,4.78125,3.3128576278686523,459200,0.0,
1994-08-24 00:00:00+00:00,4.875,5.03125,4.875,3.376978874206543,956000,0.0,
1994-08-25 00:00:00+00:00,4.96875,4.96875,4.75,3.270110845565796,773200,0.0,
1994-08-26 00:00:00+00:00,4.8125,4.875,4.65625,3.2914843559265137,1071600,0.0,
1994-08-29 00:00:00+00:00,4.875,4.875,4.625,3.227366209030152,1677600,0.0,
1994-08-30 00:00:00+00:00,4.71875,4.8125,4.6875,3.2914843559265137,976800,0.0,
1994-08-31 00:00:00+00:00,4.8125,4.90625,4.75,3.2914843559265137,1103600,0.0,
1994-09-01 00:00:00+00:00,4.78125,4.875,4.78125,3.3128576278686523,967600,0.0,
1994-09-02 00:00:00+00:00,4.90625,4.9375,4.84375,3.376978874206543,250400,0.0,
1994-09-06 00:00:00+00:00,4.90625,5.03125,4.875,3.4410977363586426,397200,0.0,
1994-09-07 00:00:00+00:00,5.0625,5.25,5.0625,3.547964811325073,1347600,0.0,
1994-09-08 00:00:00+00:00,5.125,5.4375,5.125,3.71895170211792,1925200,0.0,
1994-09-09 00:00:00+00:00,5.375,5.375,5.125,3.505215883255005,1384800,0.0,
1994-09-12 00:00:00+00:00,5.1875,5.21875,5.125,3.505215883255005,572800,0.0,
1994-09-13 00:00:00+00:00,5.15625,5.1875,5.125,3.526592493057251,136400,0.0,
1994-09-14 00:00:00+00:00,5.125,5.25,5.125,3.590710163116455,378800,0.0,
1994-09-15 00:00:00+00:00,5.25,5.3125,5.21875,3.590710163116455,1040800,0.0,
1994-09-16 00:00:00+00:00,5.28125,5.375,5.25,3.6762053966522217,429600,0.0,
1994-09-19 00:00:00+00:00,5.375,5.375,5.25,3.590710163116455,374400,0.0,
1994-09-20 00:00:00+00:00,5.1875,5.1875,5.0,3.505215883255005,248400,0.0,
1994-09-21 00:00:00+00:00,5.125,5.125,4.9375,3.4197239875793457,303200,0.0,
1994-09-22 00:00:00+00:00,5.0625,5.0625,5.0,3.4197239875793457,68000,0.0,
1994-09-23 00:00:00+00:00,5.0625,5.21875,5.0625,3.547964811325073,456000,0.0,
1994-09-26 00:00:00+00:00,5.15625,5.25,5.15625,3.590710163116455,168800,0.0,
1994-09-27 00:00:00+00:00,5.21875,5.21875,5.15625,3.547964811325073,271200,0.0,
1994-09-28 00:00:00+00:00,5.1875,5.21875,5.15625,3.526592493057251,45600,0.0,
1994-09-29 00:00:00+00:00,5.1875,5.1875,5.125,3.526592493057251,135200,0.0,
1994-09-30 00:00:00+00:00,5.1875,5.1875,5.0625,3.483844518661499,63600,0.0,
1994-10-03 00:00:00+00:00,5.09375,5.125,5.0625,3.4624714851379395,100000,0.0,
1994-10-04 00:00:00+00:00,5.09375,5.09375,4.96875,3.398350715637207,256800,0.0,
1994-10-05 00:00:00+00:00,4.96875,5.03125,4.96875,3.4410977363586426,100400,0.0,
1994-10-06 00:00:00+00:00,5.0625,5.125,5.03125,3.4624714851379395,187200,0.0,
1994-10-07 00:00:00+00:00,5.09375,5.3125,5.09375,3.61744236946106,220000,0.0075,
1994-10-10 00:00:00+00:00,5.28125,5.375,5.28125,3.638847589492798,344000,0.0,
1994-10-11 00:00:00+00:00,5.3125,5.375,5.3125,3.638847589492798,328800,0.0,
1994-10-12 00:00:00+00:00,5.25,5.25,5.15625,3.531825065612793,155600,0.0,
1994-10-13 00:00:00+00:00,5.21875,5.28125,5.1875,3.596038818359375,285600,0.0,
1994-10-14 00:00:00+00:00,5.25,5.25,5.1875,3.596038818359375,151200,0.0,
1994-10-17 00:00:00+00:00,5.3125,5.3125,5.25,3.596038818359375,88000,0.0,
1994-10-18 00:00:00+00:00,5.25,5.375,5.25,3.681656837463379,153200,0.0,
1994-10-19 00:00:00+00:00,5.34375,5.4375,5.34375,3.6602542400360103,236000,0.0,
1994-10-20 00:00:00+00:00,5.3125,5.34375,5.21875,3.596038818359375,174000,0.0,
1994-10-21 00:00:00+00:00,5.1875,5.25,5.1875,3.574634075164795,66800,0.0,
1994-10-24 00:00:00+00:00,5.25,5.34375,5.1875,3.638847589492798,72800,0.0,
1994-10-25 00:00:00+00:00,5.3125,5.34375,5.1875,3.596038818359375,243200,0.0,
1994-10-26 00:00:00+00:00,5.25,5.40625,5.21875,3.703062057495117,512800,0.0,
1994-10-27 00:00:00+00:00,5.375,5.625,5.375,3.788681745529175,1548800,0.0,
1994-10-28 00:00:00+00:00,5.5,5.6875,5.46875,3.874303579330444,638000,0.0,
1994-10-31 00:00:00+00:00,5.625,5.625,5.5,3.788681745529175,102000,0.0,
1994-11-01 00:00:00+00:00,5.53125,5.5625,5.46875,3.810086488723755,71200,0.0,
1994-11-02 00:00:00+00:00,5.53125,5.53125,5.4375,3.745873212814331,349600,0.0,
1994-11-03 00:00:00+00:00,5.5,5.5625,5.46875,3.788681745529175,54000,0.0,
1994-11-04 00:00:00+00:00,5.46875,5.53125,5.46875,3.745873212814331,237600,0.0,
1994-11-07 00:00:00+00:00,5.5,5.5,5.4375,3.7244694232940674,145600,0.0,
1994-11-08 00:00:00+00:00,5.40625,5.4375,5.375,3.703062057495117,126800,0.0,
1994-11-09 00:00:00+00:00,5.4375,5.46875,5.4375,3.7244694232940674,328400,0.0,
1994-11-10 00:00:00+00:00,5.4375,5.46875,5.4375,3.7244694232940674,60800,0.0,
1994-11-11 00:00:00+00:00,5.4375,5.46875,5.34375,3.6602542400360103,80800,0.0,
1994-11-14 00:00:00+00:00,5.3125,5.3125,5.21875,3.596038818359375,125600,0.0,
1994-11-15 00:00:00+00:00,5.25,5.28125,5.21875,3.61744236946106,166400,0.0,
1994-11-16 00:00:00+00:00,5.21875,5.25,5.15625,3.531825065612793,154800,0.0,
1994-11-17 00:00:00+00:00,5.09375,5.09375,4.90625,3.403391122817993,990400,0.0,
1994-11-18 00:00:00+00:00,4.90625,4.90625,4.625,3.27496337890625,1564800,0.0,
1994-11-21 00:00:00+00:00,4.8125,4.84375,4.71875,3.253558397293091,789600,0.0,
1994-11-22 00:00:00+00:00,4.6875,4.71875,4.625,3.210747003555298,559600,0.0,
1994-11-23 00:00:00+00:00,4.71875,4.71875,4.5,3.146533489227295,952400,0.0,
1994-11-25 00:00:00+00:00,4.5625,4.59375,4.53125,3.103724241256714,45600,0.0,
1994-11-28 00:00:00+00:00,4.59375,4.59375,4.46875,3.103724241256714,1295600,0.0,
1994-11-29 00:00:00+00:00,4.53125,4.625,4.46875,3.146533489227295,1277200,0.0,
1994-11-30 00:00:00+00:00,4.625,4.625,4.53125,3.103724241256714,410400,0.0,
1994-12-01 00:00:00+00:00,4.53125,4.65625,4.5,3.167937994003296,507600,0.0,
1994-12-02 00:00:00+00:00,4.625,4.6875,4.625,3.167937994003296,588000,0.0,
1994-12-05 00:00:00+00:00,4.59375,4.65625,4.375,2.9966986179351807,1013600,0.0,
1994-12-06 00:00:00+00:00,4.375,4.4375,4.375,2.9966986179351807,664400,0.0,
1994-12-07 00:00:00+00:00,4.375,4.5625,4.34375,3.1251282691955566,218400,0.0,
1994-12-08 00:00:00+00:00,4.53125,4.8125,4.53125,3.210747003555298,552800,0.0,
1994-12-09 00:00:00+00:00,4.625,4.625,4.5625,3.146533489227295,588400,0.0,
1994-12-12 00:00:00+00:00,4.625,4.6875,4.625,3.1893434524536133,519200,0.0,
1994-12-13 00:00:00+00:00,4.65625,4.78125,4.65625,3.253558397293091,408000,0.0,
1994-12-14 00:00:00+00:00,4.78125,4.96875,4.78125,3.3819899559021,529200,0.0,
1994-12-15 00:00:00+00:00,4.96875,4.96875,4.8125,3.3177731037139893,116000,0.0,
1994-12-16 00:00:00+00:00,4.84375,4.875,4.8125,3.3177731037139893,312800,0.0,
1994-12-19 00:00:00+00:00,4.84375,4.84375,4.75,3.2963671684265137,426800,0.0,
1994-12-20 00:00:00+00:00,4.75,4.8125,4.625,3.1893434524536133,305200,0.0,
1994-12-21 00:00:00+00:00,4.6875,4.6875,4.59375,3.167937994003296,634400,0.0,
1994-12-22 00:00:00+00:00,4.65625,4.65625,4.53125,3.103724241256714,284000,0.0,
1994-12-23 00:00:00+00:00,4.5625,4.59375,4.53125,3.1251282691955566,29600,0.0,
1994-12-27 00:00:00+00:00,4.59375,4.59375,4.4375,3.0823187828063965,209600,0.0,
1994-12-28 00:00:00+00:00,4.5,4.59375,4.5,3.146533489227295,228800,0.0,
1994-12-29 00:00:00+00:00,4.65625,4.8125,4.65625,3.23215389251709,221200,0.0,
1994-12-30 00:00:00+00:00,4.71875,4.78125,4.6875,3.210747003555298,150400,0.0,
1995-01-03 00:00:00+00:00,4.75,4.78125,4.65625,3.253558397293091,129600,0.0,
1995-01-04 00:00:00+00:00,4.75,4.8125,4.6875,3.23215389251709,68400,0.0,
1995-01-05 00:00:00+00:00,4.65625,4.6875,4.59375,3.1893434524536133,260000,0.0,
1995-01-06 00:00:00+00:00,4.6875,4.6875,4.5,3.1251282691955566,404800,0.0,
1995-01-09 00:00:00+00:00,4.53125,4.5625,4.46875,3.0659542083740234,613600,0.0075,
1995-01-10 00:00:00+00:00,4.4375,4.4375,4.3125,2.9587514400482178,289600,0.0,
1995-01-11 00:00:00+00:00,4.3125,4.40625,4.3125,3.0230720043182373,124800,0.0,
1995-01-12 00:00:00+00:00,4.375,4.4375,4.3125,2.9587514400482178,374400,0.0,
1995-01-13 00:00:00+00:00,4.3125,4.40625,4.28125,3.0016331672668457,66800,0.0,
1995-01-16 00:00:00+00:00,4.3125,4.328125,4.28125,2.9587514400482178,480800,0.0,
1995-01-17 00:00:00+00:00,4.3125,4.4375,4.3125,3.0230720043182373,437600,0.0,
1995-01-18 00:00:00+00:00,4.40625,4.59375,4.40625,3.130275249481201,606000,0.0,
1995-01-19 00:00:00+00:00,4.5625,4.5625,4.5,3.0873944759368896,248000,0.0,
1995-01-20 00:00:00+00:00,4.53125,4.53125,4.5,3.108834981918335,76400,0.0,
1995-01-23 00:00:00+00:00,4.46875,4.5,4.375,3.0016331672668457,128800,0.0,
1995-01-24 00:00:00+00:00,4.375,4.5625,4.375,3.108834981918335,345600,0.0,
1995-01-25 00:00:00+00:00,4.53125,4.53125,4.46875,3.0873944759368896,129600,0.0,
1995-01-26 00:00:00+00:00,4.5,4.625,4.5,3.1731536388397217,145200,0.0,
1995-01-27 00:00:00+00:00,4.5625,4.59375,4.5,3.108834981918335,512000,0.0,
1995-01-30 00:00:00+00:00,4.53125,4.53125,4.4375,3.0659542083740234,193200,0.0,
1995-01-31 00:00:00+00:00,4.4375,4.53125,4.4375,3.0445127487182617,186400,0.0,
1995-02-01 00:00:00+00:00,4.4375,4.5,4.4375,3.0659542083740234,46000,0.0,
1995-02-02 00:00:00+00:00,4.46875,4.5,4.4375,3.0659542083740234,41600,0.0,
1995-02-03 00:00:00+00:00,4.5,4.53125,4.4375,3.0873944759368896,243600,0.0,
1995-02-06 00:00:00+00:00,4.625,4.8125,4.5625,3.2589142322540283,651200,0.0,
1995-02-07 00:00:00+00:00,4.8125,4.8125,4.6875,3.2160353660583496,437200,0.0,
1995-02-08 00:00:00+00:00,4.71875,4.8125,4.71875,3.2589142322540283,549600,0.0,
1995-02-09 00:00:00+00:00,4.78125,4.78125,4.6875,3.2160353660583496,278800,0.0,
1995-02-10 00:00:00+00:00,4.71875,4.78125,4.6875,3.2803566455841064,243600,0.0,
1995-02-13 00:00:00+00:00,4.8125,4.90625,4.8125,3.323235988616944,264800,0.0,
1995-02-14 00:00:00+00:00,4.84375,4.84375,4.75,3.323235988616944,137600,0.0,
1995-02-15 00:00:00+00:00,4.84375,4.96875,4.8125,3.3875553607940674,277200,0.0,
1995-02-16 00:00:00+00:00,4.9375,5.03125,4.9375,3.430436849594116,477600,0.0,
1995-02-17 00:00:00+00:00,5.0,5.125,5.0,3.5161964893341064,261200,0.0,
1995-02-21 00:00:00+00:00,5.125,5.125,5.09375,3.5161964893341064,92400,0.0,
1995-02-22 00:00:00+00:00,5.09375,5.125,5.0625,3.494757413864136,214400,0.0,
1995-02-23 00:00:00+00:00,5.125,5.15625,5.0625,3.5376367568969727,348800,0.0,
1995-02-24 00:00:00+00:00,5.15625,5.15625,5.09375,3.5161964893341064,281200,0.0,
1995-02-27 00:00:00+00:00,5.125,5.15625,5.09375,3.5376367568969727,381600,0.0,
1995-02-28 00:00:00+00:00,5.1875,5.21875,5.15625,3.580519437789917,322400,0.0,
1995-03-01 00:00:00+00:00,5.1875,5.1875,5.15625,3.5376367568969727,70800,0.0,
1995-03-02 00:00:00+00:00,5.15625,5.25,5.15625,3.601957082748413,218800,0.0,
1995-03-03 00:00:00+00:00,5.25,5.28125,5.21875,3.601957082748413,259600,0.0,
1995-03-06 00:00:00+00:00,5.25,5.25,5.15625,3.580519437789917,236400,0.0,
1995-03-07 00:00:00+00:00,5.25,5.25,5.125,3.5161964893341064,405200,0.0,
1995-03-08 00:00:00+00:00,5.15625,5.28125,5.125,3.580519437789917,442800,0.0,
1995-03-09 00:00:00+00:00,5.25,5.28125,5.1875,3.6233997344970703,179600,0.0,
1995-03-10 00:00:00+00:00,5.25,5.25,5.15625,3.5376367568969727,170400,0.0,
1995-03-13 00:00:00+00:00,5.1875,5.21875,5.15625,3.5590782165527344,100800,0.0,
1995-03-14 00:00:00+00:00,5.1875,5.25,5.1875,3.601957082748413,101600,0.0,
1995-03-15 00:00:00+00:00,5.25,5.34375,5.25,3.644839286804199,317200,0.0,
1995-03-16 00:00:00+00:00,5.28125,5.5,5.28125,3.7306017875671382,635600,0.0,
1995-03-17 00:00:00+00:00,5.40625,5.5,5.3125,3.7306017875671382,492800,0.0,
1995-03-20 00:00:00+00:00,5.40625,5.5,5.28125,3.666280746459961,426800,0.0,
1995-03-21 00:00:00+00:00,5.3125,5.3125,5.25,3.601957082748413,159600,0.0,
1995-03-22 00:00:00+00:00,5.3125,5.375,5.28125,3.644839286804199,349200,0.0,
1995-03-23 00:00:00+00:00,5.34375,5.4375,5.3125,3.709161043167114,279600,0.0,
1995-03-24 00:00:00+00:00,5.40625,5.40625,5.28125,3.644839286804199,696000,0.0,
1995-03-27 00:00:00+00:00,5.34375,5.5,5.3125,3.773479223251343,314400,0.0,
1995-03-28 00:00:00+00:00,5.5,5.5625,5.5,3.81636118888855,268800,0.0,
1995-03-29 00:00:00+00:00,5.5625,5.6875,5.5625,3.859241485595703,458000,0.0,
1995-03-30 00:00:00+00:00,5.65625,5.875,5.65625,4.030763626098633,414400,0.0,
1995-03-31 00:00:00+00:00,5.90625,6.21875,5.90625,4.223725318908691,1336800,0.0,
1995-04-03 00:00:00+00:00,6.15625,6.15625,5.96875,4.095083236694336,1253600,0.0,
1995-04-04 00:00:00+00:00,5.96875,5.96875,5.84375,4.030763626098633,666000,0.0,
1995-04-05 00:00:00+00:00,5.875,5.96875,5.84375,4.0522050857543945,1044800,0.0,
1995-04-06 00:00:00+00:00,5.875,5.875,5.71875,3.923563480377197,704000,0.0,
1995-04-07 00:00:00+00:00,5.6875,5.75,5.625,3.8643100261688232,227600,0.0075,
1995-04-10 00:00:00+00:00,5.59375,5.75,5.59375,3.950183153152466,525600,0.0,
1995-04-11 00:00:00+00:00,5.78125,5.78125,5.6875,3.950183153152466,668400,0.0,
1995-04-12 00:00:00+00:00,5.75,5.78125,5.71875,3.971651792526245,110400,0.0,
1995-04-13 00:00:00+00:00,5.8125,5.875,5.75,3.950183153152466,191600,0.0,
1995-04-17 00:00:00+00:00,5.78125,5.8125,5.75,3.950183153152466,133200,0.0,
1995-04-18 00:00:00+00:00,5.75,5.75,5.5625,3.821371555328369,805200,0.0,
1995-04-19 00:00:00+00:00,5.59375,5.625,5.53125,3.8643100261688232,182400,0.0,
1995-04-20 00:00:00+00:00,5.625,5.78125,5.625,3.971651792526245,356000,0.0,
1995-04-21 00:00:00+00:00,5.8125,6.1875,5.8125,4.186336517333984,1894000,0.0,
1995-04-24 00:00:00+00:00,6.125,6.1875,5.9375,4.078995227813721,940800,0.0,
1995-04-25 00:00:00+00:00,5.875,5.90625,5.84375,4.014588832855225,103200,0.0,
1995-04-26 00:00:00+00:00,5.875,5.875,5.71875,3.971651792526245,144000,0.0,
1995-04-27 00:00:00+00:00,5.78125,5.78125,5.65625,3.885779857635498,390800,0.0,
1995-04-28 00:00:00+00:00,5.71875,5.71875,5.6875,3.928713798522949,266400,0.0,
1995-05-01 00:00:00+00:00,5.75,5.78125,5.71875,3.950183153152466,529200,0.0,
1995-05-02 00:00:00+00:00,5.75,5.75,5.6875,3.950183153152466,406400,0.0,
1995-05-03 00:00:00+00:00,5.75,5.8125,5.75,3.950183153152466,199600,0.0,
1995-05-04 00:00:00+00:00,5.75,5.75,5.6875,3.928713798522949,215200,0.0,
1995-05-05 00:00:00+00:00,5.6875,5.75,5.65625,3.885779857635498,289200,0.0,
1995-05-08 00:00:00+00:00,5.65625,5.6875,5.625,3.885779857635498,224000,0.0,
1995-05-09 00:00:00+00:00,5.65625,5.8125,5.625,3.99312162399292,509200,0.0,
1995-05-10 00:00:00+00:00,5.78125,5.9375,5.78125,4.078995227813721,706400,0.0,
1995-05-11 00:00:00+00:00,5.90625,5.90625,5.78125,3.99312162399292,222000,0.0,
1995-05-12 00:00:00+00:00,5.8125,5.8125,5.75,3.971651792526245,38800,0.0,
1995-05-15 00:00:00+00:00,5.8125,5.875,5.78125,4.036056518554688,279600,0.0,
1995-05-16 00:00:00+00:00,5.90625,5.9375,5.84375,4.014588832855225,43200,0.0,
1995-05-17 00:00:00+00:00,5.84375,5.84375,5.78125,3.99312162399292,295600,0.0,
1995-05-18 00:00:00+00:00,5.8125,5.8125,5.65625,3.928713798522949,107600,0.0,
1995-05-19 00:00:00+00:00,5.71875,5.75,5.71875,3.950183153152466,130800,0.0,
1995-05-22 00:00:00+00:00,5.75,5.75,5.6875,3.9072461128234863,64000,0.0,
1995-05-23 00:00:00+00:00,5.71875,5.90625,5.71875,4.036056518554688,340800,0.0,
1995-05-24 00:00:00+00:00,5.875,6.09375,5.84375,4.186336517333984,449200,0.0,
1995-05-25 00:00:00+00:00,6.03125,6.125,6.0,4.164867877960205,798400,0.0,
1995-05-26 00:00:00+00:00,6.0625,6.0625,5.9375,4.100460529327393,177600,0.0,
1995-05-30 00:00:00+00:00,5.9375,6.03125,5.9375,4.143398761749268,303600,0.0,
1995-05-31 00:00:00+00:00,6.0625,6.0625,6.0,4.164867877960205,254800,0.0,
1995-06-01 00:00:00+00:00,6.0625,6.09375,6.03125,4.143398761749268,26000,0.0,
1995-06-02 00:00:00+00:00,6.0625,6.09375,5.9375,4.100460529327393,201600,0.0,
1995-06-05 00:00:00+00:00,6.0,6.0,5.96875,4.121931076049805,137600,0.0,
1995-06-06 00:00:00+00:00,6.0,6.0,5.875,4.0575270652771,53200,0.0,
1995-06-07 00:00:00+00:00,5.9375,5.9375,5.8125,3.99312162399292,307600,0.0,
1995-06-08 00:00:00+00:00,5.8125,5.8125,5.75,3.971651792526245,242000,0.0,
1995-06-09 00:00:00+00:00,5.78125,5.8125,5.75,3.971651792526245,652000,0.0,
1995-06-12 00:00:00+00:00,5.78125,5.78125,5.71875,3.950183153152466,188000,0.0,
1995-06-13 00:00:00+00:00,5.6875,5.71875,5.6875,3.928713798522949,119200,0.0,
1995-06-14 00:00:00+00:00,5.78125,5.78125,5.71875,3.971651792526245,300400,0.0,
1995-06-15 00:00:00+00:00,5.75,5.8125,5.71875,3.99312162399292,186800,0.0,
1995-06-16 00:00:00+00:00,5.8125,5.8125,5.6875,3.9072461128234863,190000,0.0,
1995-06-19 00:00:00+00:00,5.65625,5.71875,5.59375,3.9072461128234863,399600,0.0,
1995-06-20 00:00:00+00:00,5.71875,5.71875,5.34375,3.671095848083496,788000,0.0,
1995-06-21 00:00:00+00:00,5.34375,5.34375,5.1875,3.585221529006958,494400,0.0,
1995-06-22 00:00:00+00:00,5.21875,5.21875,5.0625,3.542282819747925,762800,0.0,
1995-06-23 00:00:00+00:00,5.1875,5.34375,5.1875,3.649625062942505,2558400,0.0,
1995-06-26 00:00:00+00:00,5.28125,5.375,5.25,3.671095848083496,352400,0.0,
1995-06-27 00:00:00+00:00,5.3125,5.4375,5.3125,3.7140300273895264,496800,0.0,
1995-06-28 00:00:00+00:00,5.375,5.375,5.21875,3.606688261032105,1011200,0.0,
1995-06-29 00:00:00+00:00,5.25,5.25,5.1875,3.5637521743774414,250400,0.0,
1995-06-30 00:00:00+00:00,5.21875,5.4375,5.21875,3.73550009727478,653600,0.0,
1995-07-03 00:00:00+00:00,5.40625,5.46875,5.34375,3.7569680213928223,317600,0.0,
1995-07-05 00:00:00+00:00,5.4375,5.4375,5.28125,3.6281566619873047,124000,0.0,
1995-07-06 00:00:00+00:00,5.25,5.28125,5.21875,3.606688261032105,680800,0.0,
1995-07-07 00:00:00+00:00,5.25,5.25,5.21875,3.606688261032105,272400,0.0,
1995-07-10 00:00:00+00:00,5.28125,5.3125,5.125,3.520816802978516,638400,0.0,
1995-07-11 00:00:00+00:00,5.125,5.28125,5.0,3.542282819747925,582000,0.0,
1995-07-12 00:00:00+00:00,5.1875,5.28125,5.1875,3.611941814422608,335600,0.0075,
1995-07-13 00:00:00+00:00,5.375,5.4375,5.21875,3.5904440879821777,817600,0.0,
1995-07-14 00:00:00+00:00,5.25,5.28125,5.15625,3.568942785263061,286000,0.0,
1995-07-17 00:00:00+00:00,5.1875,5.25,5.15625,3.5904440879821777,460400,0.0,
1995-07-18 00:00:00+00:00,5.21875,5.28125,5.21875,3.633441686630249,77600,0.0,
1995-07-19 00:00:00+00:00,5.25,5.28125,5.1875,3.611941814422608,132000,0.0,
1995-07-20 00:00:00+00:00,5.25,5.375,5.25,3.633441686630249,379200,0.0,
1995-07-21 00:00:00+00:00,5.28125,5.375,5.21875,3.676442623138428,248000,0.0,
1995-07-24 00:00:00+00:00,5.3125,5.40625,5.3125,3.697944164276123,176400,0.0,
1995-07-25 00:00:00+00:00,5.40625,5.46875,5.40625,3.740942478179932,344000,0.0,
1995-07-26 00:00:00+00:00,5.40625,5.40625,5.34375,3.676442623138428,244000,0.0,
1995-07-27 00:00:00+00:00,5.28125,5.375,5.21875,3.633441686630249,758000,0.0,
1995-07-28 00:00:00+00:00,5.3125,5.375,5.25,3.697944164276123,111600,0.0,
1995-07-31 00:00:00+00:00,5.34375,5.4375,5.34375,3.7194414138793945,217200,0.0,
1995-08-01 00:00:00+00:00,5.375,5.375,5.1875,3.5904440879821777,532800,0.0,
1995-08-02 00:00:00+00:00,5.21875,5.25,5.1875,3.5904440879821777,302000,0.0,
1995-08-03 00:00:00+00:00,5.1875,5.34375,5.125,3.676442623138428,552400,0.0,
1995-08-04 00:00:00+00:00,5.34375,5.34375,5.28125,3.676442623138428,558800,0.0,
1995-08-07 00:00:00+00:00,5.375,5.40625,5.34375,3.697944164276123,101600,0.0,
1995-08-08 00:00:00+00:00,5.40625,5.4375,5.34375,3.676442623138428,305200,0.0,
1995-08-09 00:00:00+00:00,5.40625,5.40625,5.3125,3.6549417972564697,703200,0.0,
1995-08-10 00:00:00+00:00,5.3125,5.34375,5.1875,3.568942785263061,166000,0.0,
1995-08-11 00:00:00+00:00,5.15625,5.3125,5.15625,3.6549417972564697,349600,0.0,
1995-08-14 00:00:00+00:00,5.34375,5.34375,5.25,3.611941814422608,134400,0.0,
1995-08-15 00:00:00+00:00,5.3125,5.34375,5.25,3.611941814422608,108800,0.0,
1995-08-16 00:00:00+00:00,5.21875,5.21875,5.125,3.5904440879821777,242000,0.0,
1995-08-17 00:00:00+00:00,5.1875,5.3125,5.1875,3.633441686630249,371600,0.0,
1995-08-18 00:00:00+00:00,5.28125,5.5,5.28125,3.7194414138793945,542400,0.0,
1995-08-21 00:00:00+00:00,5.46875,5.5,5.40625,3.7194414138793945,575600,0.0,
1995-08-22 00:00:00+00:00,5.4375,5.53125,5.4375,3.805439949035645,362400,0.0,
1995-08-23 00:00:00+00:00,5.5625,5.71875,5.5625,3.869940757751465,317600,0.0,
1995-08-24 00:00:00+00:00,5.59375,5.625,5.46875,3.783939838409424,2007200,0.0,
1995-08-25 00:00:00+00:00,5.5,5.53125,5.5,3.783939838409424,160000,0.0,
1995-08-28 00:00:00+00:00,5.5,5.5625,5.46875,3.805439949035645,280000,0.0,
1995-08-29 00:00:00+00:00,5.53125,5.5625,5.5,3.805439949035645,56400,0.0,
1995-08-30 00:00:00+00:00,5.625,5.65625,5.625,3.891439914703369,290400,0.0,
1995-08-31 00:00:00+00:00,5.6875,5.84375,5.6875,3.998937129974365,116800,0.0,
1995-09-01 00:00:00+00:00,5.84375,5.96875,5.84375,4.106433391571045,431200,0.0,
1995-09-05 00:00:00+00:00,5.96875,6.03125,5.90625,4.149435997009277,545200,0.0,
1995-09-06 00:00:00+00:00,5.96875,6.0,5.90625,4.127936363220215,415600,0.0,
1995-09-07 00:00:00+00:00,6.0,6.03125,5.78125,4.149435997009277,284000,0.0,
1995-09-08 00:00:00+00:00,6.03125,6.09375,5.9375,4.084934234619141,248000,0.0,
1995-09-11 00:00:00+00:00,5.96875,6.03125,5.9375,4.149435997009277,230800,0.0,
1995-09-12 00:00:00+00:00,6.0,6.15625,5.90625,4.235430717468262,312400,0.0,
1995-09-13 00:00:00+00:00,6.125,6.125,6.03125,4.170934200286865,547600,0.0,
1995-09-14 00:00:00+00:00,6.03125,6.09375,5.9375,4.192432403564453,348000,0.0,
1995-09-15 00:00:00+00:00,6.0625,6.1875,6.0625,4.256932735443115,221200,0.0,
1995-09-18 00:00:00+00:00,6.15625,6.34375,6.125,4.278431415557861,490000,0.0,
1995-09-19 00:00:00+00:00,6.15625,6.1875,6.0,4.235430717468262,504800,0.0,
1995-09-20 00:00:00+00:00,6.125,6.125,6.0,4.127936363220215,284800,0.0,
1995-09-21 00:00:00+00:00,6.0625,6.0625,5.9375,4.149435997009277,451200,0.0,
1995-09-22 00:00:00+00:00,6.03125,6.03125,5.78125,4.04193639755249,143600,0.0,
1995-09-25 00:00:00+00:00,5.84375,5.84375,5.75,3.977439165115357,183200,0.0,
