date,PPG_Open,PPG_High,PPG_Low,PPG_Close,PPG_Volume,PPG_Dividends,PPG_Stock Splits
1980-03-17 00:00:00+00:00,0.0,1.75,1.6796879768371582,0.5534418225288391,164800,0.0,
1980-03-18 00:00:00+00:00,0.0,1.6875,1.6328129768371582,0.543192982673645,188800,0.0,
1980-03-19 00:00:00+00:00,0.0,1.6875,1.6640629768371582,0.5508801937103271,84800,0.0,
1980-03-20 00:00:00+00:00,0.0,1.6875,1.6484379768371582,0.5534418225288391,328000,0.0,
1980-03-21 00:00:00+00:00,0.0,1.6796879768371582,1.6640629768371582,0.5457556843757629,249600,0.0,
1980-03-24 00:00:00+00:00,0.0,1.6796879768371582,1.640625,0.5508801937103271,142400,0.0,
1980-03-25 00:00:00+00:00,0.0,1.6875,1.6640629768371582,0.5457556843757629,249600,0.0,
1980-03-26 00:00:00+00:00,0.0,1.6875,1.6484379768371582,0.543192982673645,228800,0.0,
1980-03-27 00:00:00+00:00,0.0,1.65625,1.640625,0.540631115436554,268800,0.0,
1980-03-28 00:00:00+00:00,0.0,1.671875,1.6484379768371582,0.543192982673645,132800,0.0,
1980-03-31 00:00:00+00:00,0.0,1.796875,1.671875,0.5893136858940125,363200,0.0,
1980-04-01 00:00:00+00:00,0.0,1.8046879768371584,1.75,0.5790644884109497,276800,0.0,
1980-04-02 00:00:00+00:00,0.0,1.765625,1.7109379768371582,0.5611292719841003,86400,0.0,
1980-04-03 00:00:00+00:00,0.0,1.7265629768371582,1.6953129768371582,0.5636911392211914,156800,0.0,
1980-04-07 00:00:00+00:00,0.0,1.71875,1.6875,0.5560042858123779,195200,0.0,
1980-04-08 00:00:00+00:00,0.0,1.71875,1.6875,0.5611292719841003,414400,0.0,
1980-04-09 00:00:00+00:00,0.0,1.7109379768371582,1.6796879768371582,0.5534418225288391,432000,0.0,
1980-04-10 00:00:00+00:00,0.0,1.703125,1.6796879768371582,0.5534418225288391,544000,0.0,
1980-04-11 00:00:00+00:00,0.0,1.734375,1.6953129768371582,0.5688154697418213,372800,0.0,
1980-04-14 00:00:00+00:00,0.0,1.75,1.7265629768371582,0.5688154697418213,107200,0.0,
1980-04-15 00:00:00+00:00,0.0,1.75,1.7265629768371582,0.5662539005279541,110400,0.0,
1980-04-16 00:00:00+00:00,0.0,1.75,1.734375,0.5688154697418213,316800,0.0,
1980-04-17 00:00:00+00:00,0.0,1.75,1.734375,0.5688154697418213,108800,0.0,
1980-04-18 00:00:00+00:00,0.0,1.75,1.734375,0.5713780522346497,96000,0.0,
1980-04-21 00:00:00+00:00,0.0,1.7421879768371582,1.734375,0.5688154697418213,128000,0.0,
1980-04-22 00:00:00+00:00,0.0,1.765625,1.7265629768371582,0.5790644884109497,99200,0.0,
1980-04-23 00:00:00+00:00,0.0,1.796875,1.765625,0.5790644884109497,123200,0.0,
1980-04-24 00:00:00+00:00,0.0,1.8125,1.78125,0.5867512822151184,152000,0.0,
1980-04-25 00:00:00+00:00,0.0,1.8125,1.7734379768371582,0.5918760895729065,67200,0.0,
1980-04-28 00:00:00+00:00,0.0,1.8046879768371584,1.765625,0.5841889977455139,361600,0.0,
1980-04-29 00:00:00+00:00,0.0,1.8359379768371584,1.7890629768371582,0.594437837600708,164800,0.0,
1980-04-30 00:00:00+00:00,0.0,1.84375,1.796875,0.6021251082420349,152000,0.0,
1980-05-01 00:00:00+00:00,0.0,1.8671879768371584,1.8203129768371584,0.6098119020462036,312000,0.0,
1980-05-02 00:00:00+00:00,0.0,1.953125,1.875,0.6379960775375366,476800,0.0,
1980-05-05 00:00:00+00:00,0.0,1.9296879768371584,1.90625,0.6328717470169067,828800,0.0,
1980-05-06 00:00:00+00:00,0.0,1.90625,1.8828129768371584,0.6174981594085693,216000,0.0,
1980-05-07 00:00:00+00:00,0.0,1.90625,1.8671879768371584,0.6200605630874634,209600,0.0,
1980-05-08 00:00:00+00:00,0.0,1.9140629768371584,1.8984379768371584,0.6226226687431335,158400,0.0,
1980-05-09 00:00:00+00:00,0.0,1.8984379768371584,1.8671879768371584,0.6123738884925842,129600,0.0,
1980-05-12 00:00:00+00:00,0.0,1.875,1.8671879768371584,0.6123738884925842,190400,0.0,
1980-05-13 00:00:00+00:00,0.0,1.875,1.859375,0.6149362921714783,70400,0.0,
1980-05-14 00:00:00+00:00,0.0,1.875,1.859375,0.6149362921714783,129600,0.0,
1980-05-15 00:00:00+00:00,0.0,1.875,1.8125,0.6098119020462036,240000,0.0,
1980-05-16 00:00:00+00:00,0.0,1.84375,1.765625,0.5790644884109497,120000,0.0,
1980-05-19 00:00:00+00:00,0.0,1.7890629768371582,1.765625,0.5867512822151184,148800,0.0,
1980-05-20 00:00:00+00:00,0.0,1.8359379768371584,1.7890629768371582,0.6021251082420349,158400,0.0,
1980-05-21 00:00:00+00:00,0.0,1.8671879768371584,1.8203129768371584,0.6021251082420349,532800,0.0,
1980-05-22 00:00:00+00:00,0.0,1.828125,1.796875,0.5995624661445618,571200,0.0,
1980-05-23 00:00:00+00:00,0.0,1.828125,1.796875,0.5995624661445618,224000,0.0,
1980-05-27 00:00:00+00:00,0.0,1.8671879768371584,1.8125,0.5995624661445618,316800,0.0,
1980-05-28 00:00:00+00:00,0.0,1.8671879768371584,1.8359379768371584,0.6123738884925842,542400,0.0,
1980-05-29 00:00:00+00:00,0.0,1.875,1.8515629768371584,0.6072494983673096,187200,0.0,
1980-05-30 00:00:00+00:00,0.0,1.890625,1.84375,0.6200605630874634,227200,0.0,
1980-06-02 00:00:00+00:00,0.0,1.90625,1.875,0.6200605630874634,192000,0.0,
1980-06-03 00:00:00+00:00,0.0,1.953125,1.90625,0.6303089261054993,320000,0.0,
1980-06-04 00:00:00+00:00,0.0,1.953125,1.921875,0.6328717470169067,123200,0.0,
1980-06-05 00:00:00+00:00,0.0,2.0,1.9375,0.6456823348999023,467200,0.0,
1980-06-06 00:00:00+00:00,0.0,1.96875,1.9375,0.6354339718818665,120000,0.0,
1980-06-09 00:00:00+00:00,0.0,1.953125,1.9296879768371584,0.6354339718818665,83200,0.0,
1980-06-10 00:00:00+00:00,0.0,1.9921879768371584,1.953125,0.6533697843551636,203200,0.0,
1980-06-11 00:00:00+00:00,0.0,1.9921879768371584,1.9765629768371584,0.6533697843551636,70400,0.0,
1980-06-12 00:00:00+00:00,0.0,1.984375,1.9609379768371584,0.6456823348999023,128000,0.0,
1980-06-13 00:00:00+00:00,0.0,1.984375,1.953125,0.6508070230484009,176000,0.0,
1980-06-16 00:00:00+00:00,0.0,1.984375,1.953125,0.6482447981834412,251200,0.0,
1980-06-17 00:00:00+00:00,0.0,1.9765629768371584,1.953125,0.6405583024024963,155200,0.0,
1980-06-18 00:00:00+00:00,0.0,1.9609379768371584,1.9453129768371584,0.6431206464767456,147200,0.0,
1980-06-19 00:00:00+00:00,0.0,1.9609379768371584,1.9375,0.6354339718818665,187200,0.0,
1980-06-20 00:00:00+00:00,0.0,1.9609379768371584,1.9375,0.6405583024024963,300800,0.0,
1980-06-23 00:00:00+00:00,0.0,1.953125,1.9375,0.6354339718818665,128000,0.0,
1980-06-24 00:00:00+00:00,0.0,1.953125,1.9375,0.6354339718818665,452800,0.0,
1980-06-25 00:00:00+00:00,0.0,1.9609379768371584,1.9375,0.6431206464767456,142400,0.0,
1980-06-26 00:00:00+00:00,0.0,1.953125,1.9296879768371584,0.6354339718818665,152000,0.0,
1980-06-27 00:00:00+00:00,0.0,1.9375,1.9296879768371584,0.6354339718818665,737600,0.0,
1980-06-30 00:00:00+00:00,0.0,1.9375,1.84375,0.6149362921714783,265600,0.0,
1980-07-01 00:00:00+00:00,0.0,1.890625,1.84375,0.6200605630874634,1777600,0.0,
1980-07-02 00:00:00+00:00,0.0,1.890625,1.875,0.6174981594085693,489600,0.0,
1980-07-03 00:00:00+00:00,0.0,1.921875,1.890625,0.6226226687431335,136000,0.0,
1980-07-07 00:00:00+00:00,0.0,1.9375,1.9140629768371584,0.6303089261054993,193600,0.0,
1980-07-08 00:00:00+00:00,0.0,1.953125,1.9375,0.6405583024024963,206400,0.0,
1980-07-09 00:00:00+00:00,0.0,1.9921879768371584,1.9375,0.6533697843551636,321600,0.0,
1980-07-10 00:00:00+00:00,0.0,2.023437976837158,1.96875,0.6559315323829651,627200,0.0,
1980-07-11 00:00:00+00:00,0.0,2.015625,1.984375,0.6610562205314636,158400,0.0,
1980-07-14 00:00:00+00:00,0.0,2.054687976837158,2.0,0.6738674640655518,190400,0.0,
1980-07-15 00:00:00+00:00,0.0,2.078125,2.046875,0.6789918541908264,291200,0.0,
1980-07-16 00:00:00+00:00,0.0,2.070312976837158,2.046875,0.6789918541908264,859200,0.0,
1980-07-17 00:00:00+00:00,0.0,2.085937976837158,2.0625,0.6815537810325623,480000,0.0,
1980-07-18 00:00:00+00:00,0.0,2.148437976837158,2.070312976837158,0.699489951133728,652800,0.0,
1980-07-21 00:00:00+00:00,0.0,2.15625,2.132812976837158,0.707176685333252,268800,0.0,
1980-07-22 00:00:00+00:00,0.0,2.171875,2.148437976837158,0.7046144008636475,350400,0.0,
1980-07-23 00:00:00+00:00,0.0,2.15625,2.125,0.6969271302223206,280000,0.0,
1980-07-24 00:00:00+00:00,0.0,2.140625,2.125,0.7020519375801086,332800,0.0,
1980-07-25 00:00:00+00:00,0.0,2.140625,2.125,0.699489951133728,121600,0.0,
1980-07-28 00:00:00+00:00,0.0,2.140625,2.125,0.7020519375801086,355200,0.0,
1980-07-29 00:00:00+00:00,0.0,2.171875,2.132812976837158,0.7123010158538818,188800,0.0,
1980-07-30 00:00:00+00:00,0.0,2.195312976837158,2.1875,0.7199877500534058,1552000,0.0,
1980-07-31 00:00:00+00:00,0.0,2.210937976837158,2.1875,0.7251121997833252,1233600,0.0,
1980-08-01 00:00:00+00:00,0.0,2.234375,2.21875,0.7302368879318237,305600,0.0,
1980-08-04 00:00:00+00:00,0.0,2.273437976837158,2.21875,0.745609700679779,1603200,0.0,
1980-08-05 00:00:00+00:00,0.0,2.265625,2.226562976837158,0.737923264503479,1168000,0.0,
1980-08-06 00:00:00+00:00,0.0,2.289062976837158,2.242187976837158,0.750734269618988,254400,0.0,
1980-08-07 00:00:00+00:00,0.0,2.273437976837158,2.25,0.7404855489730835,276800,0.0,
1980-08-08 00:00:00+00:00,0.0,2.28125,2.257812976837158,0.745609700679779,598400,0.0,
1980-08-11 00:00:00+00:00,0.0,2.257812976837158,2.25,0.7404855489730835,259200,0.0,
1980-08-12 00:00:00+00:00,0.0,2.3125,2.25,0.745609700679779,1137600,0.0,
1980-08-13 00:00:00+00:00,0.0,2.296875,2.257812976837158,0.7430474162101746,140800,0.0,
1980-08-14 00:00:00+00:00,0.0,2.265625,2.25,0.7430474162101746,126400,0.0,
1980-08-15 00:00:00+00:00,0.0,2.289062976837158,2.257812976837158,0.7404855489730835,195200,0.0,
1980-08-18 00:00:00+00:00,0.0,2.25,2.203125,0.7225496172904968,299200,0.0,
1980-08-19 00:00:00+00:00,0.0,2.203125,2.171875,0.7148627638816833,622400,0.0,
1980-08-20 00:00:00+00:00,0.0,2.195312976837158,2.148437976837158,0.7199877500534058,259200,0.0,
1980-08-21 00:00:00+00:00,0.0,2.28125,2.25,0.7430474162101746,745600,0.0,
1980-08-22 00:00:00+00:00,0.0,2.28125,2.257812976837158,0.7430474162101746,195200,0.0,
1980-08-25 00:00:00+00:00,0.0,2.265625,2.25,0.737923264503479,91200,0.0,
1980-08-26 00:00:00+00:00,0.0,2.28125,2.25,0.7430474162101746,254400,0.0,
1980-08-27 00:00:00+00:00,0.0,2.257812976837158,2.21875,0.7276743054389954,336000,0.0,
1980-08-28 00:00:00+00:00,0.0,2.203125,2.171875,0.7123010158538818,212800,0.0,
1980-08-29 00:00:00+00:00,0.0,2.1875,2.15625,0.7123010158538818,740800,0.0,
1980-09-02 00:00:00+00:00,0.0,2.195312976837158,2.171875,0.7174253463745117,155200,0.0,
1980-09-03 00:00:00+00:00,0.0,2.265625,2.171875,0.737923264503479,1081600,0.0,
1980-09-04 00:00:00+00:00,0.0,2.273437976837158,2.234375,0.737923264503479,416000,0.0,
1980-09-05 00:00:00+00:00,0.0,2.257812976837158,2.234375,0.7404855489730835,731200,0.0,
1980-09-08 00:00:00+00:00,0.0,2.265625,2.242187976837158,0.7353610992431641,100800,0.0,
1980-09-09 00:00:00+00:00,0.0,2.242187976837158,2.234375,0.7353610992431641,91200,0.0,
1980-09-10 00:00:00+00:00,0.0,2.242187976837158,2.234375,0.7327982783317566,83200,0.0,
1980-09-11 00:00:00+00:00,0.0,2.25,2.234375,0.737923264503479,60800,0.0,
1980-09-12 00:00:00+00:00,0.0,2.265625,2.242187976837158,0.7430474162101746,128000,0.0,
1980-09-15 00:00:00+00:00,0.0,2.273437976837158,2.25,0.737923264503479,236800,0.0,
1980-09-16 00:00:00+00:00,0.0,2.265625,2.25,0.7430474162101746,96000,0.0,
1980-09-17 00:00:00+00:00,0.0,2.335937976837158,2.25,0.7635453939437866,1672000,0.0,
1980-09-18 00:00:00+00:00,0.0,2.367187976837158,2.335937976837158,0.7686697244644165,201600,0.0,
1980-09-19 00:00:00+00:00,0.0,2.351562976837158,2.335937976837158,0.7686697244644165,124800,0.0,
1980-09-22 00:00:00+00:00,0.0,2.359375,2.34375,0.7712327241897583,264000,0.0,
1980-09-23 00:00:00+00:00,0.0,2.375,2.335937976837158,0.7712327241897583,488000,0.0,
1980-09-24 00:00:00+00:00,0.0,2.335937976837158,2.328125,0.7635453939437866,148800,0.0,
1980-09-25 00:00:00+00:00,0.0,2.328125,2.296875,0.7558589577674866,265600,0.0,
1980-09-26 00:00:00+00:00,0.0,2.304687976837158,2.273437976837158,0.750734269618988,352000,0.0,
1980-09-29 00:00:00+00:00,0.0,2.28125,2.265625,0.7481718063354492,428800,0.0,
1980-09-30 00:00:00+00:00,0.0,2.289062976837158,2.265625,0.750734269618988,124800,0.0,
1980-10-01 00:00:00+00:00,0.0,2.28125,2.257812976837158,0.7404855489730835,100800,0.0,
1980-10-02 00:00:00+00:00,0.0,2.273437976837158,2.25,0.745609700679779,585600,0.0,
1980-10-03 00:00:00+00:00,0.0,2.289062976837158,2.265625,0.7481718063354492,180800,0.0,
1980-10-06 00:00:00+00:00,0.0,2.296875,2.265625,0.7430474162101746,121600,0.0,
1980-10-07 00:00:00+00:00,0.0,2.265625,2.25,0.737923264503479,459200,0.0,
1980-10-08 00:00:00+00:00,0.0,2.28125,2.242187976837158,0.7481718063354492,817600,0.0,
1980-10-09 00:00:00+00:00,0.0,2.28125,2.25,0.7430474162101746,443200,0.0,
1980-10-10 00:00:00+00:00,0.0,2.234375,2.203125,0.7302368879318237,796800,0.0,
1980-10-13 00:00:00+00:00,0.0,2.226562976837158,2.210937976837158,0.7302368879318237,97600,0.0,
1980-10-14 00:00:00+00:00,0.0,2.25,2.203125,0.7225496172904968,224000,0.0,
1980-10-15 00:00:00+00:00,0.0,2.203125,2.1875,0.7199877500534058,113600,0.0,
1980-10-16 00:00:00+00:00,0.0,2.203125,2.171875,0.7174253463745117,425600,0.0,
1980-10-17 00:00:00+00:00,0.0,2.1875,2.15625,0.7174253463745117,300800,0.0,
1980-10-20 00:00:00+00:00,0.0,2.1875,2.164062976837158,0.7174253463745117,150400,0.0,
1980-10-21 00:00:00+00:00,0.0,2.25,2.1875,0.737923264503479,566400,0.0,
1980-10-22 00:00:00+00:00,0.0,2.273437976837158,2.210937976837158,0.7327982783317566,172800,0.0,
1980-10-23 00:00:00+00:00,0.0,2.265625,2.234375,0.737923264503479,336000,0.0,
1980-10-24 00:00:00+00:00,0.0,2.265625,2.234375,0.7430474162101746,168000,0.0,
1980-10-27 00:00:00+00:00,0.0,2.25,2.234375,0.737923264503479,521600,0.0,
1980-10-28 00:00:00+00:00,0.0,2.265625,2.234375,0.7404855489730835,376000,0.0,
1980-10-29 00:00:00+00:00,0.0,2.265625,2.25,0.7430474162101746,251200,0.0,
1980-10-30 00:00:00+00:00,0.0,2.273437976837158,2.257812976837158,0.7430474162101746,156800,0.0,
1980-10-31 00:00:00+00:00,0.0,2.265625,2.25,0.7430474162101746,243200,0.0,
1980-11-03 00:00:00+00:00,0.0,2.28125,2.226562976837158,0.7481718063354492,1062400,0.0,
1980-11-05 00:00:00+00:00,0.0,2.359375,2.273437976837158,0.7481718063354492,1062400,0.0,
1980-11-06 00:00:00+00:00,0.0,2.3125,2.28125,0.7532961964607239,531200,0.0,
1980-11-07 00:00:00+00:00,0.0,2.296875,2.28125,0.7481718063354492,579200,0.0,
1980-11-10 00:00:00+00:00,0.0,2.28125,2.257812976837158,0.745609700679779,180800,0.0,
1980-11-11 00:00:00+00:00,0.0,2.28125,2.265625,0.7430474162101746,867200,0.0,
1980-11-12 00:00:00+00:00,0.0,2.28125,2.25,0.745609700679779,281600,0.0,
1980-11-13 00:00:00+00:00,0.0,2.28125,2.257812976837158,0.745609700679779,1980800,0.0,
1980-11-14 00:00:00+00:00,0.0,2.304687976837158,2.273437976837158,0.7558589577674866,702400,0.0,
1980-11-17 00:00:00+00:00,0.0,2.34375,2.289062976837158,0.7635453939437866,1176000,0.0,
1980-11-18 00:00:00+00:00,0.0,2.351562976837158,2.328125,0.7661079168319702,164800,0.0,
1980-11-19 00:00:00+00:00,0.0,2.367187976837158,2.320312976837158,0.7737944722175598,241600,0.0,
1980-11-20 00:00:00+00:00,0.0,2.421875,2.34375,0.786605954170227,377600,0.0,
1980-11-21 00:00:00+00:00,0.0,2.398437976837158,2.3125,0.7737944722175598,209600,0.0,
1980-11-24 00:00:00+00:00,0.0,2.382812976837158,2.296875,0.7686697244644165,243200,0.0,
1980-11-25 00:00:00+00:00,0.0,2.351562976837158,2.296875,0.7584209442138672,179200,0.0,
1980-11-26 00:00:00+00:00,0.0,2.265625,2.195312976837158,0.7225496172904968,377600,0.0,
1980-11-28 00:00:00+00:00,0.0,2.203125,2.171875,0.7174253463745117,323200,0.0,
1980-12-01 00:00:00+00:00,0.0,2.203125,2.179687976837158,0.7174253463745117,152000,0.0,
1980-12-02 00:00:00+00:00,0.0,2.203125,2.171875,0.7225496172904968,244800,0.0,
1980-12-03 00:00:00+00:00,0.0,2.25,2.1875,0.737923264503479,182400,0.0,
1980-12-04 00:00:00+00:00,0.0,2.265625,2.21875,0.737923264503479,643200,0.0,
1980-12-05 00:00:00+00:00,0.0,2.25,2.234375,0.7353610992431641,235200,0.0,
1980-12-08 00:00:00+00:00,0.0,2.21875,2.1875,0.7225496172904968,385600,0.0,
1980-12-09 00:00:00+00:00,0.0,2.203125,2.1875,0.7174253463745117,528000,0.0,
1980-12-10 00:00:00+00:00,0.0,2.234375,2.1875,0.7199877500534058,206400,0.0,
1980-12-11 00:00:00+00:00,0.0,2.203125,2.15625,0.707176685333252,456000,0.0,
1980-12-12 00:00:00+00:00,0.0,2.171875,2.148437976837158,0.707176685333252,57600,0.0,
1980-12-15 00:00:00+00:00,0.0,2.148437976837158,2.117187976837158,0.6943652629852295,472000,0.0,
1980-12-16 00:00:00+00:00,0.0,2.101562976837158,2.046875,0.6764293313026428,131200,0.0,
1980-12-17 00:00:00+00:00,0.0,2.101562976837158,2.070312976837158,0.6841161847114563,276800,0.0,
1980-12-18 00:00:00+00:00,0.0,2.078125,2.0625,0.6789918541908264,168000,0.0,
1980-12-19 00:00:00+00:00,0.0,2.140625,2.0625,0.7020519375801086,504000,0.0,
1980-12-22 00:00:00+00:00,0.0,2.164062976837158,2.125,0.7097387909889221,384000,0.0,
1980-12-23 00:00:00+00:00,0.0,2.1875,2.140625,0.707176685333252,184000,0.0,
1980-12-24 00:00:00+00:00,0.0,2.242187976837158,2.132812976837158,0.7353610992431641,1203200,0.0,
1980-12-26 00:00:00+00:00,0.0,2.265625,2.226562976837158,0.737923264503479,97600,0.0,
1980-12-29 00:00:00+00:00,0.0,2.304687976837158,2.234375,0.7430474162101746,324800,0.0,
1980-12-30 00:00:00+00:00,0.0,2.328125,2.234375,0.7635453939437866,1240000,0.0,
1980-12-31 00:00:00+00:00,0.0,2.546875,2.320312976837158,0.8352876305580139,928000,0.0,
1981-01-02 00:00:00+00:00,0.0,2.546875,2.5,0.8352876305580139,483200,0.0,
1981-01-05 00:00:00+00:00,0.0,2.601562976837158,2.5,0.8250393271446228,1252800,0.0,
1981-01-06 00:00:00+00:00,0.0,2.5,2.40625,0.794292151927948,296000,0.0,
1981-01-07 00:00:00+00:00,0.0,2.375,2.25,0.7737944722175598,540800,0.0,
1981-01-08 00:00:00+00:00,0.0,2.367187976837158,2.21875,0.7532961964607239,680000,0.0,
1981-01-09 00:00:00+00:00,0.0,2.398437976837158,2.289062976837158,0.786605954170227,1307200,0.0,
1981-01-12 00:00:00+00:00,0.0,2.554687976837158,2.4375,0.8301635384559631,1108800,0.0,
1981-01-13 00:00:00+00:00,0.0,2.53125,2.5,0.8250393271446228,276800,0.0,
1981-01-14 00:00:00+00:00,0.0,2.578125,2.5,0.8276010155677795,1025600,0.0,
1981-01-15 00:00:00+00:00,0.0,2.53125,2.5,0.8250393271446228,310400,0.0,
1981-01-16 00:00:00+00:00,0.0,2.640625,2.507812976837158,0.8660343289375305,820800,0.0,
1981-01-19 00:00:00+00:00,0.0,2.65625,2.578125,0.8609099984169006,768000,0.0,
1981-01-20 00:00:00+00:00,0.0,2.671875,2.640625,0.873721718788147,822400,0.0,
1981-01-21 00:00:00+00:00,0.0,2.703125,2.625,0.8814083933830261,2556800,0.0,
1981-01-22 00:00:00+00:00,0.0,2.765625,2.609375,0.8660343289375305,1601600,0.0,
1981-01-23 00:00:00+00:00,0.0,2.640625,2.578125,0.8609099984169006,1859200,0.0,
1981-01-26 00:00:00+00:00,0.0,2.601562976837158,2.5625,0.8404125571250916,329600,0.0,
1981-01-27 00:00:00+00:00,0.0,2.59375,2.5625,0.8480991721153259,753600,0.0,
1981-01-28 00:00:00+00:00,0.0,2.648437976837158,2.578125,0.8609099984169006,358400,0.0,
1981-01-29 00:00:00+00:00,0.0,2.6875,2.625,0.8711592555046082,262400,0.0,
1981-01-30 00:00:00+00:00,0.0,2.695312976837158,2.640625,0.873721718788147,358400,0.0,
1981-02-02 00:00:00+00:00,0.0,2.648437976837158,2.578125,0.8506619334220886,187200,0.0,
1981-02-03 00:00:00+00:00,0.0,2.640625,2.578125,0.8609099984169006,313600,0.0,
1981-02-04 00:00:00+00:00,0.0,2.65625,2.570312976837158,0.8455366492271423,601600,0.0,
1981-02-05 00:00:00+00:00,0.0,2.625,2.570312976837158,0.8609099984169006,201600,0.0,
1981-02-06 00:00:00+00:00,0.0,2.71875,2.625,0.889094889163971,532800,0.0,
1981-02-09 00:00:00+00:00,0.0,2.71875,2.664062976837158,0.8865323066711426,464000,0.0,
1981-02-10 00:00:00+00:00,0.0,2.71875,2.6875,0.8865323066711426,472000,0.0,
1981-02-11 00:00:00+00:00,0.0,2.703125,2.65625,0.8814083933830261,617600,0.0,
1981-02-12 00:00:00+00:00,0.0,2.679687976837158,2.625,0.8788460493087769,196800,0.0,
1981-02-13 00:00:00+00:00,0.0,2.671875,2.609375,0.8660343289375305,156800,0.0,
1981-02-17 00:00:00+00:00,0.0,2.65625,2.601562976837158,0.8557862043380737,345600,0.0,
1981-02-18 00:00:00+00:00,0.0,2.640625,2.5625,0.8506619334220886,428800,0.0,
1981-02-19 00:00:00+00:00,0.0,2.59375,2.53125,0.8352876305580139,601600,0.0,
1981-02-20 00:00:00+00:00,0.0,2.554687976837158,2.539062976837158,0.8352876305580139,329600,0.0,
1981-02-23 00:00:00+00:00,0.0,2.585937976837158,2.546875,0.8480991721153259,427200,0.0,
1981-02-24 00:00:00+00:00,0.0,2.632812976837158,2.59375,0.8609099984169006,334400,0.0,
1981-02-25 00:00:00+00:00,0.0,2.9375,2.609375,0.9633991718292236,4424000,0.0,
1981-02-26 00:00:00+00:00,0.0,3.09375,2.875,0.9992701411247252,5041600,0.0,
1981-02-27 00:00:00+00:00,0.0,3.15625,2.992187976837158,1.0351414680480957,3398400,0.0,
1981-03-02 00:00:00+00:00,0.0,3.234375,3.140625,1.0530779361724854,3272000,0.0,
1981-03-03 00:00:00+00:00,0.0,3.234375,3.09375,1.0325802564620972,3803200,0.0,
1981-03-04 00:00:00+00:00,0.0,3.125,3.0625,1.0248934030532837,1982400,0.0,
1981-03-05 00:00:00+00:00,0.0,3.117187976837158,2.984375,0.9838972687721252,1225600,0.0,
1981-03-06 00:00:00+00:00,0.0,3.039062976837158,2.890625,0.9941467046737672,1899200,0.0,
1981-03-09 00:00:00+00:00,0.0,3.0625,2.96875,1.0043954849243164,712000,0.0,
1981-03-10 00:00:00+00:00,0.0,3.046875,2.9375,0.9710866808891296,497600,0.0,
1981-03-11 00:00:00+00:00,0.0,2.984375,2.914062976837158,0.9736481308937072,1625600,0.0,
1981-03-12 00:00:00+00:00,0.0,3.09375,2.9375,1.0095196962356567,1329600,0.0,
1981-03-13 00:00:00+00:00,0.0,3.140625,3.09375,1.0248934030532837,1672000,0.0,
1981-03-16 00:00:00+00:00,0.0,3.140625,3.0625,1.019768476486206,566400,0.0,
1981-03-17 00:00:00+00:00,0.0,3.1875,3.117187976837158,1.0377042293548584,2062400,0.0,
1981-03-18 00:00:00+00:00,0.0,3.296875,3.125,1.0556397438049316,1782400,0.0,
1981-03-19 00:00:00+00:00,0.0,3.265625,3.171875,1.040266752243042,648000,0.0,
1981-03-20 00:00:00+00:00,0.0,3.25,3.15625,1.0479538440704346,884800,0.0,
1981-03-23 00:00:00+00:00,0.0,3.234375,3.171875,1.0556397438049316,368000,0.0,
1981-03-24 00:00:00+00:00,0.0,3.25,3.125,1.0428286790847778,760000,0.0,
1981-03-25 00:00:00+00:00,0.0,3.492187976837158,3.171875,1.1325076818466189,6833600,0.0,
1981-03-26 00:00:00+00:00,0.0,3.46875,3.34375,1.096635818481445,2190400,0.0,
1981-03-27 00:00:00+00:00,0.0,3.460937976837158,3.328125,1.1120083332061768,1571200,0.0,
1981-03-30 00:00:00+00:00,0.0,3.398437976837158,3.28125,1.076137661933899,1011200,0.0,
1981-03-31 00:00:00+00:00,0.0,3.398437976837158,3.328125,1.1094471216201782,1208000,0.0,
1981-04-01 00:00:00+00:00,0.0,3.4375,3.335937976837158,1.1171334981918335,1326400,0.0,
1981-04-02 00:00:00+00:00,0.0,3.421875,3.28125,1.1017602682113647,723200,0.0,
1981-04-03 00:00:00+00:00,0.0,3.367187976837158,3.28125,1.0812619924545288,817600,0.0,
1981-04-06 00:00:00+00:00,0.0,3.609375,3.3125,1.1837517023086548,2217600,0.0,
1981-04-07 00:00:00+00:00,0.0,3.640625,3.515625,1.1632531881332395,2635200,0.0,
1981-04-08 00:00:00+00:00,0.0,3.585937976837158,3.46875,1.1427557468414309,968000,0.0,
1981-04-09 00:00:00+00:00,0.0,3.5625,3.46875,1.1530042886734009,2723200,0.0,
1981-04-10 00:00:00+00:00,0.0,3.5625,3.46875,1.1683779954910278,1227200,0.0,
1981-04-13 00:00:00+00:00,0.0,3.609375,3.5625,1.1735023260116575,1553600,0.0,
1981-04-14 00:00:00+00:00,0.0,3.5625,3.484375,1.1478803157806396,555200,0.0,
1981-04-15 00:00:00+00:00,0.0,3.507812976837158,3.4375,1.145318627357483,665600,0.0,
1981-04-16 00:00:00+00:00,0.0,3.523437976837158,3.476562976837158,1.1555670499801636,716800,0.0,
1981-04-20 00:00:00+00:00,0.0,3.53125,3.492187976837158,1.1530042886734009,400000,0.0,
1981-04-21 00:00:00+00:00,0.0,3.523437976837158,3.296875,1.0812619924545288,1460800,0.0,
1981-04-22 00:00:00+00:00,0.0,3.367187976837158,3.28125,1.08894944190979,824000,0.0,
1981-04-23 00:00:00+00:00,0.0,3.421875,3.3125,1.1094471216201782,907200,0.0,
1981-04-24 00:00:00+00:00,0.0,3.421875,3.34375,1.1171334981918335,995200,0.0,
1981-04-27 00:00:00+00:00,0.0,3.453125,3.375,1.1171334981918335,1088000,0.0,
1981-04-28 00:00:00+00:00,0.0,3.390625,3.234375,1.078699827194214,592000,0.0,
1981-04-29 00:00:00+00:00,0.0,3.25,3.15625,1.0428286790847778,633600,0.0,
1981-04-30 00:00:00+00:00,0.0,3.210937976837158,3.164062976837158,1.045391321182251,756800,0.0,
1981-05-01 00:00:00+00:00,0.0,3.296875,3.171875,1.065889835357666,1225600,0.0,
1981-05-04 00:00:00+00:00,0.0,3.25,3.171875,1.0479538440704346,536000,0.0,
1981-05-05 00:00:00+00:00,0.0,3.140625,3.09375,1.0172065496444702,937600,0.0,
1981-05-06 00:00:00+00:00,0.0,3.15625,3.109375,1.0223307609558103,716800,0.0,
1981-05-07 00:00:00+00:00,0.0,3.203125,3.109375,1.045391321182251,876800,0.0,
1981-05-08 00:00:00+00:00,0.0,3.203125,3.164062976837158,1.045391321182251,827200,0.0,
1981-05-11 00:00:00+00:00,0.0,3.210937976837158,3.101562976837158,1.0172065496444702,372800,0.0,
1981-05-12 00:00:00+00:00,0.0,3.109375,3.0625,1.0095196962356567,782400,0.0,
1981-05-13 00:00:00+00:00,0.0,3.125,3.046875,1.0146446228027344,374400,0.0,
1981-05-14 00:00:00+00:00,0.0,3.203125,3.078125,1.0248934030532837,1054400,0.0,
1981-05-15 00:00:00+00:00,0.0,3.15625,3.109375,1.0300177335739136,748800,0.0,
1981-05-18 00:00:00+00:00,0.0,3.148437976837158,3.117187976837158,1.0274558067321775,348800,0.0,
1981-05-19 00:00:00+00:00,0.0,3.203125,3.125,1.045391321182251,654400,0.0,
1981-05-20 00:00:00+00:00,0.0,3.40625,3.203125,1.1145713329315186,1464000,0.0,
1981-05-21 00:00:00+00:00,0.0,3.398437976837158,3.320312976837158,1.1068836450576782,801600,0.0,
1981-05-22 00:00:00+00:00,0.0,3.367187976837158,3.296875,1.0915111303329468,388800,0.0,
1981-05-26 00:00:00+00:00,0.0,3.328125,3.289062976837158,1.0915111303329468,444800,0.0,
1981-05-27 00:00:00+00:00,0.0,3.359375,3.265625,1.0735764503479004,400000,0.0,
1981-05-28 00:00:00+00:00,0.0,3.296875,3.234375,1.0607644319534302,273600,0.0,
1981-05-29 00:00:00+00:00,0.0,3.21875,3.171875,1.0505156517028809,212800,0.0,
1981-06-01 00:00:00+00:00,0.0,3.242187976837158,3.140625,1.0300177335739136,1132800,0.0,
1981-06-02 00:00:00+00:00,0.0,3.125,3.0,1.0043954849243164,675200,0.0,
1981-06-03 00:00:00+00:00,0.0,3.046875,2.9375,0.9710866808891296,411200,0.0,
1981-06-04 00:00:00+00:00,0.0,2.976562976837158,2.945312976837158,0.9736481308937072,344000,0.0,
1981-06-05 00:00:00+00:00,0.0,3.039062976837158,2.921875,0.9941467046737672,1054400,0.0,
1981-06-08 00:00:00+00:00,0.0,3.078125,3.015625,0.9941467046737672,347200,0.0,
1981-06-09 00:00:00+00:00,0.0,3.078125,3.0,0.9992701411247252,750400,0.0,
1981-06-10 00:00:00+00:00,0.0,3.085937976837158,3.0,1.0043954849243164,369600,0.0,
1981-06-11 00:00:00+00:00,0.0,3.15625,3.078125,1.0351414680480957,139200,0.0,
1981-06-12 00:00:00+00:00,0.0,3.140625,3.085937976837158,1.0146446228027344,171200,0.0,
1981-06-15 00:00:00+00:00,0.0,3.140625,3.078125,1.0300177335739136,233600,0.0,
1981-06-16 00:00:00+00:00,0.0,3.132812976837158,3.101562976837158,1.019768476486206,150400,0.0,
1981-06-17 00:00:00+00:00,0.0,3.09375,3.054687976837158,1.0095196962356567,256000,0.0,
1981-06-18 00:00:00+00:00,0.0,3.078125,3.007812976837158,0.9890225529670716,185600,0.0,
1981-06-19 00:00:00+00:00,0.0,3.0,2.9375,0.9685247540473938,196800,0.0,
1981-06-22 00:00:00+00:00,0.0,2.984375,2.9375,0.9710866808891296,363200,0.0,
1981-06-23 00:00:00+00:00,0.0,2.992187976837158,2.945312976837158,0.9736481308937072,195200,0.0,
1981-06-24 00:00:00+00:00,0.0,2.976562976837158,2.90625,0.9633991718292236,224000,0.0,
1981-06-25 00:00:00+00:00,0.0,2.960937976837158,2.921875,0.9633991718292236,192000,0.0,
1981-06-26 00:00:00+00:00,0.0,2.929687976837158,2.828125,0.9429015517234802,332800,0.0,
1981-06-29 00:00:00+00:00,0.0,2.921875,2.875,0.955713152885437,454400,0.0,
1981-06-30 00:00:00+00:00,0.0,2.960937976837158,2.914062976837158,0.9633991718292236,284800,0.0,
1981-07-01 00:00:00+00:00,0.0,2.953125,2.921875,0.965962290763855,190400,0.0,
1981-07-02 00:00:00+00:00,0.0,2.953125,2.921875,0.9633991718292236,67200,0.0,
1981-07-06 00:00:00+00:00,0.0,2.929687976837158,2.890625,0.9531514048576356,198400,0.0,
1981-07-07 00:00:00+00:00,0.0,2.898437976837158,2.796875,0.9198417067527772,302400,0.0,
1981-07-08 00:00:00+00:00,0.0,2.8125,2.742187976837158,0.9070301055908204,870400,0.0,
1981-07-09 00:00:00+00:00,0.0,2.75,2.71875,0.9019057750701904,662400,0.0,
1981-07-10 00:00:00+00:00,0.0,2.757812976837158,2.710937976837158,0.8916568160057068,360000,0.0,
1981-07-13 00:00:00+00:00,0.0,2.726562976837158,2.6875,0.8839709162712097,428800,0.0,
1981-07-14 00:00:00+00:00,0.0,2.710937976837158,2.6875,0.8865323066711426,577600,0.0,
1981-07-15 00:00:00+00:00,0.0,2.875,2.695312976837158,0.9172793626785278,2560000,0.0,
1981-07-16 00:00:00+00:00,0.0,2.835937976837158,2.796875,0.9300904870033264,1044800,0.0,
1981-07-17 00:00:00+00:00,0.0,2.898437976837158,2.828125,0.9326530694961548,542400,0.0,
1981-07-20 00:00:00+00:00,0.0,2.84375,2.75,0.9070301055908204,889600,0.0,
1981-07-21 00:00:00+00:00,0.0,2.8125,2.742187976837158,0.899343729019165,651200,0.0,
1981-07-22 00:00:00+00:00,0.0,2.765625,2.703125,0.8865323066711426,379200,0.0,
1981-07-23 00:00:00+00:00,0.0,2.757812976837158,2.671875,0.8942193388938904,664000,0.0,
1981-07-24 00:00:00+00:00,0.0,2.765625,2.71875,0.9019057750701904,174400,0.0,
1981-07-27 00:00:00+00:00,0.0,2.78125,2.71875,0.8916568160057068,350400,0.0,
1981-07-28 00:00:00+00:00,0.0,2.78125,2.703125,0.912154257297516,1201600,0.0,
1981-07-29 00:00:00+00:00,0.0,2.835937976837158,2.78125,0.9172793626785278,1441600,0.0,
1981-07-30 00:00:00+00:00,0.0,2.820312976837158,2.773437976837158,0.914717435836792,329600,0.0,
1981-07-31 00:00:00+00:00,0.0,2.8125,2.78125,0.912154257297516,241600,0.0,
1981-08-03 00:00:00+00:00,0.0,2.8125,2.773437976837158,0.9172793626785278,460800,0.0,
1981-08-04 00:00:00+00:00,0.0,2.8125,2.757812976837158,0.9172793626785278,310400,0.0,
1981-08-05 00:00:00+00:00,0.0,2.890625,2.796875,0.9480260014533995,454400,0.0,
1981-08-06 00:00:00+00:00,0.0,2.945312976837158,2.859375,0.9429015517234802,1337600,0.0,
1981-08-07 00:00:00+00:00,0.0,2.890625,2.835937976837158,0.9352155327796936,129600,0.0,
1981-08-10 00:00:00+00:00,0.0,2.875,2.835937976837158,0.9429015517234802,798400,0.0,
1981-08-11 00:00:00+00:00,0.0,2.96875,2.890625,0.9685247540473938,822400,0.0,
1981-08-12 00:00:00+00:00,0.0,2.984375,2.875,0.9454646110534668,324800,0.0,
1981-08-13 00:00:00+00:00,0.0,2.875,2.835937976837158,0.9377774596214294,112000,0.0,
1981-08-14 00:00:00+00:00,0.0,2.929687976837158,2.851562976837158,0.9531514048576356,268800,0.0,
1981-08-17 00:00:00+00:00,0.0,2.921875,2.851562976837158,0.9454646110534668,265600,0.0,
1981-08-18 00:00:00+00:00,0.0,2.882812976837158,2.8125,0.9300904870033264,1198400,0.0,
1981-08-19 00:00:00+00:00,0.0,2.859375,2.828125,0.9377774596214294,326400,0.0,
1981-08-20 00:00:00+00:00,0.0,2.867187976837158,2.851562976837158,0.9352155327796936,166400,0.0,
1981-08-21 00:00:00+00:00,0.0,2.859375,2.828125,0.9300904870033264,675200,0.0,
1981-08-24 00:00:00+00:00,0.0,2.851562976837158,2.828125,0.9352155327796936,747200,0.0,
1981-08-25 00:00:00+00:00,0.0,2.898437976837158,2.835937976837158,0.9454646110534668,464000,0.0,
1981-08-26 00:00:00+00:00,0.0,2.890625,2.867187976837158,0.9403392672538756,120000,0.0,
1981-08-27 00:00:00+00:00,0.0,2.875,2.867187976837158,0.9403392672538756,112000,0.0,
1981-08-28 00:00:00+00:00,0.0,2.875,2.867187976837158,0.9403392672538756,248000,0.0,
1981-08-31 00:00:00+00:00,0.0,2.867187976837158,2.859375,0.9377774596214294,196800,0.0,
1981-09-01 00:00:00+00:00,0.0,2.875,2.867187976837158,0.9403392672538756,342400,0.0,
1981-09-02 00:00:00+00:00,0.0,2.898437976837158,2.875,0.9454646110534668,153600,0.0,
1981-09-03 00:00:00+00:00,0.0,2.890625,2.859375,0.9377774596214294,315200,0.0,
1981-09-04 00:00:00+00:00,0.0,2.84375,2.796875,0.9224035739898682,465600,0.0,
1981-09-08 00:00:00+00:00,0.0,2.789062976837158,2.65625,0.8839709162712097,449600,0.0,
1981-09-09 00:00:00+00:00,0.0,2.703125,2.664062976837158,0.8814083933830261,278400,0.0,
1981-09-10 00:00:00+00:00,0.0,2.757812976837158,2.6875,0.8942193388938904,217600,0.0,
1981-09-11 00:00:00+00:00,0.0,2.726562976837158,2.6875,0.8865323066711426,230400,0.0,
1981-09-14 00:00:00+00:00,0.0,2.71875,2.695312976837158,0.889094889163971,393600,0.0,
1981-09-15 00:00:00+00:00,0.0,2.75,2.703125,0.8865323066711426,355200,0.0,
1981-09-16 00:00:00+00:00,0.0,2.734375,2.703125,0.8967816233634949,403200,0.0,
1981-09-17 00:00:00+00:00,0.0,2.734375,2.710937976837158,0.889094889163971,89600,0.0,
1981-09-18 00:00:00+00:00,0.0,2.703125,2.632812976837158,0.8660343289375305,1006400,0.0,
1981-09-21 00:00:00+00:00,0.0,2.648437976837158,2.640625,0.8685972690582275,283200,0.0,
1981-09-22 00:00:00+00:00,0.0,2.648437976837158,2.632812976837158,0.8685972690582275,240000,0.0,
1981-09-23 00:00:00+00:00,0.0,2.625,2.59375,0.8557862043380737,523200,0.0,
1981-09-24 00:00:00+00:00,0.0,2.640625,2.578125,0.8506619334220886,484800,0.0,
1981-09-25 00:00:00+00:00,0.0,2.59375,2.460937976837158,0.8096652626991272,366400,0.0,
1981-09-28 00:00:00+00:00,0.0,2.546875,2.390625,0.8352876305580139,694400,0.0,
1981-09-29 00:00:00+00:00,0.0,2.625,2.5625,0.8404125571250916,737600,0.0,
1981-09-30 00:00:00+00:00,0.0,2.554687976837158,2.5,0.8250393271446228,313600,0.0,
1981-10-01 00:00:00+00:00,0.0,2.523437976837158,2.453125,0.8173522353172302,964800,0.0,
1981-10-02 00:00:00+00:00,0.0,2.523437976837158,2.476562976837158,0.8276010155677795,2206400,0.0,
1981-10-05 00:00:00+00:00,0.0,2.53125,2.476562976837158,0.8173522353172302,516800,0.0,
1981-10-06 00:00:00+00:00,0.0,2.492187976837158,2.421875,0.799416720867157,513600,0.0,
1981-10-07 00:00:00+00:00,0.0,2.4375,2.40625,0.794292151927948,182400,0.0,
1981-10-08 00:00:00+00:00,0.0,2.460937976837158,2.40625,0.8045412302017212,644800,0.0,
1981-10-09 00:00:00+00:00,0.0,2.453125,2.421875,0.799416720867157,329600,0.0,
1981-10-12 00:00:00+00:00,0.0,2.4375,2.414062976837158,0.799416720867157,387200,0.0,
1981-10-13 00:00:00+00:00,0.0,2.445312976837158,2.421875,0.7968546748161316,110400,0.0,
1981-10-14 00:00:00+00:00,0.0,2.4375,2.421875,0.794292151927948,70400,0.0,
1981-10-15 00:00:00+00:00,0.0,2.4375,2.421875,0.7968546748161316,132800,0.0,
1981-10-16 00:00:00+00:00,0.0,2.453125,2.429687976837158,0.7968546748161316,1144000,0.0,
1981-10-19 00:00:00+00:00,0.0,2.445312976837158,2.414062976837158,0.8019793629646301,216000,0.0,
1981-10-20 00:00:00+00:00,0.0,2.421875,2.390625,0.7840434908866882,1475200,0.0,
1981-10-21 00:00:00+00:00,0.0,2.414062976837158,2.375,0.7840434908866882,419200,0.0,
1981-10-22 00:00:00+00:00,0.0,2.382812976837158,2.3125,0.7686697244644165,283200,0.0,
1981-10-23 00:00:00+00:00,0.0,2.359375,2.289062976837158,0.7532961964607239,372800,0.0,
1981-10-26 00:00:00+00:00,0.0,2.328125,2.289062976837158,0.7558589577674866,108800,0.0,
1981-10-27 00:00:00+00:00,0.0,2.367187976837158,2.304687976837158,0.7712327241897583,153600,0.0,
1981-10-28 00:00:00+00:00,0.0,2.421875,2.351562976837158,0.7814812660217285,648000,0.0,
1981-10-29 00:00:00+00:00,0.0,2.382812976837158,2.351562976837158,0.7737944722175598,318400,0.0,
1981-10-30 00:00:00+00:00,0.0,2.390625,2.351562976837158,0.7840434908866882,491200,0.0,
1981-11-02 00:00:00+00:00,0.0,2.46875,2.414062976837158,0.799416720867157,1241600,0.0,
1981-11-03 00:00:00+00:00,0.0,2.53125,2.445312976837158,0.8301635384559631,411200,0.0,
1981-11-04 00:00:00+00:00,0.0,2.53125,2.5,0.822476863861084,1062400,0.0,
1981-11-05 00:00:00+00:00,0.0,2.5625,2.507812976837158,0.8352876305580139,451200,0.0,
1981-11-06 00:00:00+00:00,0.0,2.570312976837158,2.515625,0.8404125571250916,161600,0.0,
1981-11-09 00:00:00+00:00,0.0,2.570312976837158,2.539062976837158,0.8429750204086304,91200,0.0,
1981-11-10 00:00:00+00:00,0.0,2.617187976837158,2.59375,0.8506619334220886,137600,0.0,
1981-11-11 00:00:00+00:00,0.0,2.617187976837158,2.59375,0.8583486080169678,331200,0.0,
1981-11-12 00:00:00+00:00,0.0,2.640625,2.59375,0.8557862043380737,236800,0.0,
1981-11-13 00:00:00+00:00,0.0,2.59375,2.53125,0.8378505706787109,358400,0.0,
1981-11-16 00:00:00+00:00,0.0,2.53125,2.453125,0.8122285604476929,284800,0.0,
1981-11-17 00:00:00+00:00,0.0,2.5,2.46875,0.8173522353172302,500800,0.0,
1981-11-18 00:00:00+00:00,0.0,2.5,2.46875,0.8096652626991272,926400,0.0,
1981-11-19 00:00:00+00:00,0.0,2.484375,2.460937976837158,0.8122285604476929,518400,0.0,
1981-11-20 00:00:00+00:00,0.0,2.5,2.476562976837158,0.8199145793914795,86400,0.0,
1981-11-23 00:00:00+00:00,0.0,2.492187976837158,2.445312976837158,0.8071037530899048,190400,0.0,
1981-11-24 00:00:00+00:00,0.0,2.46875,2.445312976837158,0.8071037530899048,150400,0.0,
1981-11-25 00:00:00+00:00,0.0,2.484375,2.445312976837158,0.8045412302017212,1275200,0.0,
1981-11-27 00:00:00+00:00,0.0,2.476562976837158,2.453125,0.8122285604476929,196800,0.0,
1981-11-30 00:00:00+00:00,0.0,2.53125,2.460937976837158,0.8250393271446228,275200,0.0,
1981-12-01 00:00:00+00:00,0.0,2.523437976837158,2.453125,0.8147896528244019,657600,0.0,
1981-12-02 00:00:00+00:00,0.0,2.507812976837158,2.445312976837158,0.8147896528244019,364800,0.0,
1981-12-03 00:00:00+00:00,0.0,2.515625,2.476562976837158,0.8250393271446228,422400,0.0,
1981-12-04 00:00:00+00:00,0.0,2.53125,2.5,0.8250393271446228,1816000,0.0,
1981-12-07 00:00:00+00:00,0.0,2.53125,2.46875,0.8173522353172302,400000,0.0,
1981-12-08 00:00:00+00:00,0.0,2.492187976837158,2.460937976837158,0.8096652626991272,201600,0.0,
1981-12-09 00:00:00+00:00,0.0,2.492187976837158,2.460937976837158,0.8147896528244019,347200,0.0,
1981-12-10 00:00:00+00:00,0.0,2.5,2.460937976837158,0.8173522353172302,403200,0.0,
1981-12-11 00:00:00+00:00,0.0,2.515625,2.484375,0.8250393271446228,281600,0.0,
1981-12-14 00:00:00+00:00,0.0,2.492187976837158,2.4375,0.8045412302017212,860800,0.0,
1981-12-15 00:00:00+00:00,0.0,2.453125,2.390625,0.8019793629646301,264000,0.0,
1981-12-16 00:00:00+00:00,0.0,2.453125,2.4375,0.8019793629646301,113600,0.0,
1981-12-17 00:00:00+00:00,0.0,2.453125,2.4375,0.799416720867157,363200,0.0,
1981-12-18 00:00:00+00:00,0.0,2.445312976837158,2.421875,0.794292151927948,209600,0.0,
1981-12-21 00:00:00+00:00,0.0,2.4375,2.375,0.7789192199707031,670400,0.0,
1981-12-22 00:00:00+00:00,0.0,2.390625,2.359375,0.7789192199707031,240000,0.0,
1981-12-23 00:00:00+00:00,0.0,2.382812976837158,2.351562976837158,0.7789192199707031,388800,0.0,
1981-12-24 00:00:00+00:00,0.0,2.382812976837158,2.367187976837158,0.7814812660217285,520000,0.0,
1981-12-28 00:00:00+00:00,0.0,2.375,2.3125,0.7584209442138672,1014400,0.0,
1981-12-29 00:00:00+00:00,0.0,2.328125,2.3125,0.7584209442138672,248000,0.0,
1981-12-30 00:00:00+00:00,0.0,2.335937976837158,2.3125,0.7635453939437866,195200,0.0,
1981-12-31 00:00:00+00:00,0.0,2.375,2.21875,0.7737944722175598,580800,0.0,
1982-01-04 00:00:00+00:00,0.0,2.367187976837158,2.335937976837158,0.7763566374778748,728000,0.0,
1982-01-05 00:00:00+00:00,0.0,2.359375,2.296875,0.7635453939437866,278400,0.0,
1982-01-06 00:00:00+00:00,0.0,2.328125,2.289062976837158,0.7635453939437866,336000,0.0,
1982-01-07 00:00:00+00:00,0.0,2.335937976837158,2.28125,0.7532961964607239,408000,0.0,
1982-01-08 00:00:00+00:00,0.0,2.3125,2.257812976837158,0.7430474162101746,228800,0.0,
1982-01-11 00:00:00+00:00,0.0,2.265625,2.1875,0.7174253463745117,5382400,0.0,
1982-01-12 00:00:00+00:00,0.0,2.210937976837158,2.15625,0.7225496172904968,358400,0.0,
1982-01-13 00:00:00+00:00,0.0,2.21875,2.171875,0.7174253463745117,507200,0.0,
1982-01-14 00:00:00+00:00,0.0,2.179687976837158,2.15625,0.7148627638816833,177600,0.0,
1982-01-15 00:00:00+00:00,0.0,2.1875,2.140625,0.707176685333252,291200,0.0,
1982-01-18 00:00:00+00:00,0.0,2.132812976837158,2.0,0.6764293313026428,10244800,0.0,
1982-01-19 00:00:00+00:00,0.0,2.085937976837158,2.039062976837158,0.6738674640655518,312000,0.0,
1982-01-20 00:00:00+00:00,0.0,2.0625,2.023437976837158,0.6713048815727234,492800,0.0,
1982-01-21 00:00:00+00:00,0.0,2.046875,2.023437976837158,0.6713048815727234,321600,0.0,
1982-01-22 00:00:00+00:00,0.0,2.03125,2.0,0.6661807894706726,1499200,0.0,
1982-01-25 00:00:00+00:00,0.0,2.03125,2.0,0.6610562205314636,403200,0.0,
1982-01-26 00:00:00+00:00,0.0,2.015625,1.96875,0.6559315323829651,1643200,0.0,
1982-01-27 00:00:00+00:00,0.0,2.007812976837158,1.9921879768371584,0.6584938168525696,345600,0.0,
1982-01-28 00:00:00+00:00,0.0,2.039062976837158,1.9921879768371584,0.6687427759170532,492800,0.0,
1982-01-29 00:00:00+00:00,0.0,2.09375,2.0625,0.6841161847114563,1184000,0.0,
1982-02-01 00:00:00+00:00,0.0,2.078125,2.03125,0.6713048815727234,243200,0.0,
1982-02-02 00:00:00+00:00,0.0,2.0625,2.007812976837158,0.6764293313026428,283200,0.0,
1982-02-03 00:00:00+00:00,0.0,2.070312976837158,2.039062976837158,0.6789918541908264,523200,0.0,
1982-02-04 00:00:00+00:00,0.0,2.078125,2.046875,0.6815537810325623,222400,0.0,
1982-02-05 00:00:00+00:00,0.0,2.148437976837158,2.070312976837158,0.7046144008636475,353600,0.0,
1982-02-08 00:00:00+00:00,0.0,2.125,2.078125,0.6815537810325623,721600,0.0,
1982-02-09 00:00:00+00:00,0.0,2.046875,2.015625,0.6687427759170532,203200,0.0,
1982-02-10 00:00:00+00:00,0.0,2.039062976837158,2.015625,0.6687427759170532,596800,0.0,
1982-02-11 00:00:00+00:00,0.0,2.039062976837158,1.9296879768371584,0.6405583024024963,480000,0.0,
1982-02-12 00:00:00+00:00,0.0,1.9765629768371584,1.9375,0.6482447981834412,304000,0.0,
1982-02-16 00:00:00+00:00,0.0,1.984375,1.9375,0.6508070230484009,512000,0.0,
1982-02-17 00:00:00+00:00,0.0,2.0,1.9609379768371584,0.6482447981834412,233600,0.0,
1982-02-18 00:00:00+00:00,0.0,1.9765629768371584,1.9375,0.6482447981834412,363200,0.0,
1982-02-19 00:00:00+00:00,0.0,1.984375,1.9453129768371584,0.6456823348999023,192000,0.0,
1982-02-22 00:00:00+00:00,0.0,2.023437976837158,1.9375,0.6379960775375366,1331200,0.0,
1982-02-23 00:00:00+00:00,0.0,1.96875,1.9453129768371584,0.6431206464767456,182400,0.0,
1982-02-24 00:00:00+00:00,0.0,1.9609379768371584,1.921875,0.6405583024024963,2142400,0.0,
1982-02-25 00:00:00+00:00,0.0,1.9765629768371584,1.953125,0.6405583024024963,889600,0.0,
1982-02-26 00:00:00+00:00,0.0,1.96875,1.9453129768371584,0.6431206464767456,939200,0.0,
1982-03-01 00:00:00+00:00,0.0,1.96875,1.9375,0.6354339718818665,419200,0.0,
1982-03-02 00:00:00+00:00,0.0,1.953125,1.921875,0.6328717470169067,336000,0.0,
1982-03-03 00:00:00+00:00,0.0,1.9296879768371584,1.890625,0.6251848936080933,409600,0.0,
1982-03-04 00:00:00+00:00,0.0,1.921875,1.8828129768371584,0.6200605630874634,235200,0.0,
1982-03-05 00:00:00+00:00,0.0,1.90625,1.875,0.6149362921714783,265600,0.0,
1982-03-08 00:00:00+00:00,0.0,1.8828129768371584,1.84375,0.6046870946884155,560000,0.0,
1982-03-09 00:00:00+00:00,0.0,1.8515629768371584,1.8125,0.5995624661445618,1928000,0.0,
1982-03-10 00:00:00+00:00,0.0,1.859375,1.8203129768371584,0.6098119020462036,656000,0.0,
1982-03-11 00:00:00+00:00,0.0,1.9375,1.84375,0.6354339718818665,712000,0.0,
1982-03-12 00:00:00+00:00,0.0,1.9609379768371584,1.90625,0.6431206464767456,336000,0.0,
1982-03-15 00:00:00+00:00,0.0,2.0,1.9453129768371584,0.6533697843551636,176000,0.0,
1982-03-16 00:00:00+00:00,0.0,2.007812976837158,1.9765629768371584,0.6584938168525696,998400,0.0,
1982-03-17 00:00:00+00:00,0.0,2.023437976837158,1.96875,0.6559315323829651,952000,0.0,
1982-03-18 00:00:00+00:00,0.0,2.0,1.9375,0.6456823348999023,616000,0.0,
1982-03-19 00:00:00+00:00,0.0,1.96875,1.9375,0.6456823348999023,812800,0.0,
1982-03-22 00:00:00+00:00,0.0,1.96875,1.9375,0.6431206464767456,342400,0.0,
1982-03-23 00:00:00+00:00,0.0,2.015625,1.9609379768371584,0.6533697843551636,1097600,0.0,
1982-03-24 00:00:00+00:00,0.0,2.03125,2.0,0.6610562205314636,291200,0.0,
1982-03-25 00:00:00+00:00,0.0,2.0,1.96875,0.6533697843551636,1993600,0.0,
1982-03-26 00:00:00+00:00,0.0,1.9921879768371584,1.953125,0.6431206464767456,265600,0.0,
1982-03-29 00:00:00+00:00,0.0,1.984375,1.9609379768371584,0.6508070230484009,44800,0.0,
1982-03-30 00:00:00+00:00,0.0,2.007812976837158,1.9765629768371584,0.6533697843551636,248000,0.0,
1982-03-31 00:00:00+00:00,0.0,1.984375,1.96875,0.6482447981834412,72000,0.0,
1982-04-01 00:00:00+00:00,0.0,2.0,1.96875,0.6559315323829651,228800,0.0,
1982-04-02 00:00:00+00:00,0.0,2.015625,1.9765629768371584,0.6584938168525696,385600,0.0,
1982-04-05 00:00:00+00:00,0.0,2.03125,2.0,0.6584938168525696,372800,0.0,
1982-04-06 00:00:00+00:00,0.0,2.023437976837158,2.007812976837158,0.6610562205314636,211200,0.0,
1982-04-07 00:00:00+00:00,0.0,2.03125,2.007812976837158,0.6661807894706726,254400,0.0,
1982-04-08 00:00:00+00:00,0.0,2.046875,2.015625,0.6636185646057129,155200,0.0,
1982-04-12 00:00:00+00:00,0.0,2.039062976837158,2.007812976837158,0.6636185646057129,131200,0.0,
1982-04-13 00:00:00+00:00,0.0,2.046875,2.023437976837158,0.6687427759170532,312000,0.0,
1982-04-14 00:00:00+00:00,0.0,2.054687976837158,2.023437976837158,0.6738674640655518,408000,0.0,
1982-04-15 00:00:00+00:00,0.0,2.054687976837158,2.0,0.6584938168525696,2214400,0.0,
1982-04-16 00:00:00+00:00,0.0,2.015625,1.984375,0.6559315323829651,672000,0.0,
1982-04-19 00:00:00+00:00,0.0,2.015625,1.9921879768371584,0.6610562205314636,412800,0.0,
1982-04-20 00:00:00+00:00,0.0,2.015625,2.0,0.6610562205314636,228800,0.0,
1982-04-21 00:00:00+00:00,0.0,2.03125,2.0,0.6610562205314636,352000,0.0,
1982-04-22 00:00:00+00:00,0.0,2.03125,2.0,0.6610562205314636,467200,0.0,
1982-04-23 00:00:00+00:00,0.0,2.054687976837158,2.007812976837158,0.6738674640655518,787200,0.0,
1982-04-26 00:00:00+00:00,0.0,2.117187976837158,2.070312976837158,0.6943652629852295,516800,0.0,
1982-04-27 00:00:00+00:00,0.0,2.15625,2.109375,0.6943652629852295,404800,0.0,
1982-04-28 00:00:00+00:00,0.0,2.148437976837158,2.117187976837158,0.6969271302223206,116800,0.0,
1982-04-29 00:00:00+00:00,0.0,2.125,2.078125,0.6841161847114563,249600,0.0,
1982-04-30 00:00:00+00:00,0.0,2.132812976837158,2.046875,0.699489951133728,862400,0.0,
1982-05-03 00:00:00+00:00,0.0,2.164062976837158,2.09375,0.707176685333252,3374400,0.0,
1982-05-04 00:00:00+00:00,0.0,2.15625,2.101562976837158,0.6943652629852295,3448000,0.0,
1982-05-05 00:00:00+00:00,0.0,2.140625,2.09375,0.6943652629852295,745600,0.0,
1982-05-06 00:00:00+00:00,0.0,2.140625,2.101562976837158,0.6918033361434937,491200,0.0,
1982-05-07 00:00:00+00:00,0.0,2.125,2.09375,0.6918033361434937,235200,0.0,
1982-05-10 00:00:00+00:00,0.0,2.125,2.09375,0.6892409920692444,78400,0.0,
1982-05-11 00:00:00+00:00,0.0,2.140625,2.101562976837158,0.699489951133728,164800,0.0,
1982-05-12 00:00:00+00:00,0.0,2.171875,2.117187976837158,0.7020519375801086,316800,0.0,
1982-05-13 00:00:00+00:00,0.0,2.148437976837158,2.0625,0.6815537810325623,2137600,0.0,
1982-05-14 00:00:00+00:00,0.0,2.109375,2.0625,0.6918033361434937,3348800,0.0,
1982-05-17 00:00:00+00:00,0.0,2.125,2.09375,0.6918033361434937,280000,0.0,
1982-05-18 00:00:00+00:00,0.0,2.125,2.101562976837158,0.6918033361434937,369600,0.0,
1982-05-19 00:00:00+00:00,0.0,2.15625,2.109375,0.6969271302223206,539200,0.0,
1982-05-20 00:00:00+00:00,0.0,2.140625,2.101562976837158,0.7020519375801086,315200,0.0,
1982-05-21 00:00:00+00:00,0.0,2.140625,2.09375,0.6969271302223206,737600,0.0,
1982-05-24 00:00:00+00:00,0.0,2.125,2.09375,0.6892409920692444,81600,0.0,
1982-05-25 00:00:00+00:00,0.0,2.109375,2.070312976837158,0.6841161847114563,195200,0.0,
1982-05-26 00:00:00+00:00,0.0,2.09375,2.070312976837158,0.6789918541908264,376000,0.0,
1982-05-27 00:00:00+00:00,0.0,2.070312976837158,2.015625,0.6789918541908264,241600,0.0,
1982-05-28 00:00:00+00:00,0.0,2.085937976837158,2.054687976837158,0.6815537810325623,100800,0.0,
1982-06-01 00:00:00+00:00,0.0,2.085937976837158,1.96875,0.6508070230484009,196800,0.0,
1982-06-02 00:00:00+00:00,0.0,2.03125,1.984375,0.6661807894706726,427200,0.0,
1982-06-03 00:00:00+00:00,0.0,2.078125,2.0,0.6610562205314636,928000,0.0,
1982-06-04 00:00:00+00:00,0.0,2.0,1.921875,0.6354339718818665,1617600,0.0,
1982-06-07 00:00:00+00:00,0.0,1.953125,1.9140629768371584,0.6303089261054993,307200,0.0,
1982-06-08 00:00:00+00:00,0.0,1.921875,1.890625,0.6226226687431335,337600,0.0,
1982-06-09 00:00:00+00:00,0.0,1.890625,1.828125,0.6021251082420349,2569600,0.0,
1982-06-10 00:00:00+00:00,0.0,1.875,1.8203129768371584,0.6123738884925842,107200,0.0,
1982-06-11 00:00:00+00:00,0.0,1.9140629768371584,1.8984379768371584,0.627747118473053,646400,0.0,
1982-06-14 00:00:00+00:00,0.0,1.921875,1.890625,0.6303089261054993,726400,0.0,
1982-06-15 00:00:00+00:00,0.0,1.921875,1.890625,0.6303089261054993,846400,0.0,
1982-06-16 00:00:00+00:00,0.0,1.9453129768371584,1.921875,0.6354339718818665,409600,0.0,
1982-06-17 00:00:00+00:00,0.0,1.9296879768371584,1.90625,0.6328717470169067,161600,0.0,
1982-06-18 00:00:00+00:00,0.0,1.9453129768371584,1.90625,0.6303089261054993,121600,0.0,
1982-06-21 00:00:00+00:00,0.0,1.921875,1.8828129768371584,0.6226226687431335,140800,0.0,
1982-06-22 00:00:00+00:00,0.0,1.90625,1.8828129768371584,0.6251848936080933,100800,0.0,
1982-06-23 00:00:00+00:00,0.0,1.9609379768371584,1.9140629768371584,0.6405583024024963,182400,0.0,
1982-06-24 00:00:00+00:00,0.0,1.9921879768371584,1.953125,0.6431206464767456,635200,0.0,
1982-06-25 00:00:00+00:00,0.0,1.984375,1.9453129768371584,0.6482447981834412,168000,0.0,
1982-06-28 00:00:00+00:00,0.0,2.023437976837158,1.984375,0.6559315323829651,752000,0.0,
1982-06-29 00:00:00+00:00,0.0,2.09375,2.0,0.6866783499717712,566400,0.0,
1982-06-30 00:00:00+00:00,0.0,2.085937976837158,2.03125,0.6815537810325623,728000,0.0,
1982-07-01 00:00:00+00:00,0.0,2.085937976837158,2.0625,0.6841161847114563,1262400,0.0,
1982-07-02 00:00:00+00:00,0.0,2.078125,2.070312976837158,0.6815537810325623,228800,0.0,
1982-07-06 00:00:00+00:00,0.0,2.085937976837158,2.046875,0.6713048815727234,910400,0.0,
1982-07-07 00:00:00+00:00,0.0,2.0625,2.0,0.6559315323829651,244800,0.0,
1982-07-08 00:00:00+00:00,0.0,2.046875,2.0,0.6687427759170532,256000,0.0,
1982-07-09 00:00:00+00:00,0.0,2.0625,2.039062976837158,0.6764293313026428,971200,0.0,
1982-07-12 00:00:00+00:00,0.0,2.09375,2.046875,0.6764293313026428,321600,0.0,
1982-07-13 00:00:00+00:00,0.0,2.070312976837158,2.046875,0.6713048815727234,1595200,0.0,
1982-07-14 00:00:00+00:00,0.0,2.03125,2.0,0.6610562205314636,80000,0.0,
1982-07-15 00:00:00+00:00,0.0,2.046875,2.0,0.6661807894706726,219200,0.0,
1982-07-16 00:00:00+00:00,0.0,2.03125,2.0,0.6636185646057129,1366400,0.0,
1982-07-19 00:00:00+00:00,0.0,2.0625,2.03125,0.6713048815727234,1960000,0.0,
1982-07-20 00:00:00+00:00,0.0,2.09375,2.046875,0.6841161847114563,907200,0.0,
1982-07-21 00:00:00+00:00,0.0,2.179687976837158,2.09375,0.7123010158538818,1259200,0.0,
1982-07-22 00:00:00+00:00,0.0,2.21875,2.164062976837158,0.7225496172904968,206400,0.0,
1982-07-23 00:00:00+00:00,0.0,2.226562976837158,2.171875,0.7174253463745117,185600,0.0,
1982-07-26 00:00:00+00:00,0.0,2.242187976837158,2.1875,0.7353610992431641,324800,0.0,
1982-07-27 00:00:00+00:00,0.0,2.226562976837158,2.210937976837158,0.7302368879318237,184000,0.0,
1982-07-28 00:00:00+00:00,0.0,2.21875,2.132812976837158,0.7020519375801086,358400,0.0,
1982-07-29 00:00:00+00:00,0.0,2.203125,2.109375,0.7225496172904968,401600,0.0,
1982-07-30 00:00:00+00:00,0.0,2.226562976837158,2.195312976837158,0.7302368879318237,336000,0.0,
1982-08-02 00:00:00+00:00,0.0,2.28125,2.21875,0.745609700679779,564800,0.0,
1982-08-03 00:00:00+00:00,0.0,2.28125,2.234375,0.737923264503479,1036800,0.0,
1982-08-04 00:00:00+00:00,0.0,2.203125,2.140625,0.7046144008636475,4504000,0.0,
1982-08-05 00:00:00+00:00,0.0,2.140625,2.09375,0.6943652629852295,241600,0.0,
1982-08-06 00:00:00+00:00,0.0,2.117187976837158,2.03125,0.6661807894706726,753600,0.0,
1982-08-09 00:00:00+00:00,0.0,2.054687976837158,2.007812976837158,0.6738674640655518,225600,0.0,
1982-08-10 00:00:00+00:00,0.0,2.078125,2.046875,0.6815537810325623,363200,0.0,
1982-08-11 00:00:00+00:00,0.0,2.085937976837158,2.070312976837158,0.6815537810325623,219200,0.0,
1982-08-12 00:00:00+00:00,0.0,2.101562976837158,2.070312976837158,0.6841161847114563,756800,0.0,
1982-08-13 00:00:00+00:00,0.0,2.117187976837158,2.085937976837158,0.6918033361434937,801600,0.0,
1982-08-16 00:00:00+00:00,0.0,2.132812976837158,2.101562976837158,0.6943652629852295,670400,0.0,
1982-08-17 00:00:00+00:00,0.0,2.179687976837158,2.125,0.7148627638816833,614400,0.0,
1982-08-18 00:00:00+00:00,0.0,2.34375,2.25,0.7532961964607239,2147200,0.0,
1982-08-19 00:00:00+00:00,0.0,2.3125,2.28125,0.7584209442138672,1566400,0.0,
1982-08-20 00:00:00+00:00,0.0,2.484375,2.328125,0.799416720867157,1852800,0.0,
1982-08-23 00:00:00+00:00,0.0,2.5,2.414062976837158,0.794292151927948,1672000,0.0,
1982-08-24 00:00:00+00:00,0.0,2.4375,2.375,0.7891677618026733,1491200,0.0,
1982-08-25 00:00:00+00:00,0.0,2.507812976837158,2.375,0.799416720867157,1664000,0.0,
1982-08-26 00:00:00+00:00,0.0,2.53125,2.40625,0.8019793629646301,1835200,0.0,
1982-08-27 00:00:00+00:00,0.0,2.453125,2.375,0.7891677618026733,1766400,0.0,
1982-08-30 00:00:00+00:00,0.0,2.515625,2.40625,0.8250393271446228,1560000,0.0,
1982-08-31 00:00:00+00:00,0.0,2.59375,2.53125,0.8301635384559631,1078400,0.0,
1982-09-01 00:00:00+00:00,0.0,2.5625,2.515625,0.8250393271446228,611200,0.0,
1982-09-02 00:00:00+00:00,0.0,2.523437976837158,2.390625,0.8122285604476929,681600,0.0,
1982-09-03 00:00:00+00:00,0.0,2.554687976837158,2.492187976837158,0.8327260613441467,932800,0.0,
1982-09-07 00:00:00+00:00,0.0,2.5625,2.53125,0.8352876305580139,1057600,0.0,
1982-09-08 00:00:00+00:00,0.0,2.554687976837158,2.53125,0.8301635384559631,369600,0.0,
1982-09-09 00:00:00+00:00,0.0,2.554687976837158,2.53125,0.8301635384559631,905600,0.0,
1982-09-10 00:00:00+00:00,0.0,2.53125,2.445312976837158,0.8147896528244019,1099200,0.0,
1982-09-13 00:00:00+00:00,0.0,2.492187976837158,2.40625,0.8147896528244019,2040000,0.0,
1982-09-14 00:00:00+00:00,0.0,2.539062976837158,2.476562976837158,0.8147896528244019,827200,0.0,
1982-09-15 00:00:00+00:00,0.0,2.515625,2.453125,0.8250393271446228,534400,0.0,
1982-09-16 00:00:00+00:00,0.0,2.53125,2.460937976837158,0.8173522353172302,1214400,0.0,
1982-09-17 00:00:00+00:00,0.0,2.515625,2.445312976837158,0.8096652626991272,1208000,0.0,
1982-09-20 00:00:00+00:00,0.0,2.492187976837158,2.4375,0.8173522353172302,584000,0.0,
1982-09-21 00:00:00+00:00,0.0,2.515625,2.476562976837158,0.8250393271446228,1401600,0.0,
1982-09-22 00:00:00+00:00,0.0,2.617187976837158,2.578125,0.8480991721153259,2398400,0.0,
1982-09-23 00:00:00+00:00,0.0,2.5625,2.539062976837158,0.8404125571250916,457600,0.0,
1982-09-24 00:00:00+00:00,0.0,2.5625,2.53125,0.8404125571250916,444800,0.0,
1982-09-27 00:00:00+00:00,0.0,2.5625,2.53125,0.8352876305580139,627200,0.0,
1982-09-28 00:00:00+00:00,0.0,2.59375,2.546875,0.8352876305580139,1088000,0.0,
1982-09-29 00:00:00+00:00,0.0,2.5625,2.5,0.8199145793914795,868800,0.0,
1982-09-30 00:00:00+00:00,0.0,2.484375,2.421875,0.8071037530899048,380800,0.0,
1982-10-01 00:00:00+00:00,0.0,2.5,2.445312976837158,0.8199145793914795,617600,0.0,
1982-10-04 00:00:00+00:00,0.0,2.515625,2.476562976837158,0.822476863861084,1147200,0.0,
1982-10-05 00:00:00+00:00,0.0,2.53125,2.5,0.8250393271446228,1032000,0.0,
1982-10-06 00:00:00+00:00,0.0,2.570312976837158,2.515625,0.8404125571250916,1368000,0.0,
1982-10-07 00:00:00+00:00,0.0,2.625,2.5625,0.8557862043380737,841600,0.0,
1982-10-08 00:00:00+00:00,0.0,2.609375,2.578125,0.8506619334220886,324800,0.0,
1982-10-11 00:00:00+00:00,0.0,2.640625,2.585937976837158,0.8583486080169678,542400,0.0,
1982-10-12 00:00:00+00:00,0.0,2.679687976837158,2.625,0.8788460493087769,1148800,0.0,
1982-10-13 00:00:00+00:00,0.0,2.84375,2.671875,0.9275286197662354,668800,0.0,
1982-10-14 00:00:00+00:00,0.0,2.84375,2.65625,0.8711592555046082,795200,0.0,
1982-10-15 00:00:00+00:00,0.0,2.65625,2.59375,0.8634729981422424,521600,0.0,
1982-10-18 00:00:00+00:00,0.0,2.734375,2.648437976837158,0.8967816233634949,326400,0.0,
1982-10-19 00:00:00+00:00,0.0,2.8125,2.75,0.9198417067527772,448000,0.0,
1982-10-20 00:00:00+00:00,0.0,2.9375,2.8125,0.9429015517234802,1268800,0.0,
1982-10-21 00:00:00+00:00,0.0,3.023437976837158,2.914062976837158,0.9736481308937072,7321600,0.0,
1982-10-22 00:00:00+00:00,0.0,3.140625,3.046875,1.0069576501846311,2614400,0.0,
1982-10-25 00:00:00+00:00,0.0,3.0625,2.875,0.9480260014533995,764800,0.0,
1982-10-26 00:00:00+00:00,0.0,2.921875,2.828125,0.9582752585411072,988800,0.0,
1982-10-27 00:00:00+00:00,0.0,3.070312976837158,2.984375,1.0069576501846311,780800,0.0,
1982-10-28 00:00:00+00:00,0.0,3.085937976837158,3.054687976837158,1.0043954849243164,1020800,0.0,
1982-10-29 00:00:00+00:00,0.0,3.070312976837158,2.96875,0.986460030078888,1156800,0.0,
1982-11-01 00:00:00+00:00,0.0,3.007812976837158,2.945312976837158,0.9838972687721252,1216000,0.0,
1982-11-02 00:00:00+00:00,0.0,3.039062976837158,2.976562976837158,0.9890225529670716,1259200,0.0,
1982-11-03 00:00:00+00:00,0.0,3.179687976837158,3.015625,1.0351414680480957,1827200,0.0,
1982-11-04 00:00:00+00:00,0.0,3.351562976837158,3.234375,1.065889835357666,2828800,0.0,
1982-11-05 00:00:00+00:00,0.0,3.335937976837158,3.09375,1.0940734148025513,1425600,0.0,
1982-11-08 00:00:00+00:00,0.0,3.304687976837158,3.1875,1.0735764503479004,732800,0.0,
1982-11-09 00:00:00+00:00,0.0,3.296875,3.21875,1.0556397438049316,1198400,0.0,
1982-11-10 00:00:00+00:00,0.0,3.273437976837158,3.21875,1.0607644319534302,739200,0.0,
1982-11-11 00:00:00+00:00,0.0,3.21875,3.15625,1.0377042293548584,705600,0.0,
1982-11-12 00:00:00+00:00,0.0,3.203125,3.164062976837158,1.040266752243042,312000,0.0,
1982-11-15 00:00:00+00:00,0.0,3.171875,3.03125,1.0043954849243164,1032000,0.0,
1982-11-16 00:00:00+00:00,0.0,3.09375,3.015625,1.0043954849243164,918400,0.0,
1982-11-17 00:00:00+00:00,0.0,3.140625,3.078125,1.019768476486206,1840000,0.0,
1982-11-18 00:00:00+00:00,0.0,3.148437976837158,3.09375,1.0300177335739136,504000,0.0,
1982-11-19 00:00:00+00:00,0.0,3.1875,3.109375,1.019768476486206,796800,0.0,
1982-11-22 00:00:00+00:00,0.0,3.210937976837158,3.078125,1.0095196962356567,769600,0.0,
1982-11-23 00:00:00+00:00,0.0,3.125,2.921875,0.9582752585411072,617600,0.0,
1982-11-24 00:00:00+00:00,0.0,3.0625,2.9375,0.9967086315155028,529600,0.0,
1982-11-26 00:00:00+00:00,0.0,3.125,3.054687976837158,1.019768476486206,344000,0.0,
1982-11-29 00:00:00+00:00,0.0,3.171875,3.117187976837158,1.0300177335739136,272000,0.0,
1982-11-30 00:00:00+00:00,0.0,3.171875,3.109375,1.0300177335739136,496000,0.0,
1982-12-01 00:00:00+00:00,0.0,3.234375,3.1875,1.0505156517028809,611200,0.0,
1982-12-02 00:00:00+00:00,0.0,3.28125,3.203125,1.0607644319534302,649600,0.0,
1982-12-03 00:00:00+00:00,0.0,3.25,3.1875,1.0556397438049316,412800,0.0,
1982-12-06 00:00:00+00:00,0.0,3.265625,3.21875,1.065889835357666,459200,0.0,
1982-12-07 00:00:00+00:00,0.0,3.3125,3.25,1.071013569831848,1816000,0.0,
1982-12-08 00:00:00+00:00,0.0,3.28125,3.21875,1.0556397438049316,244800,0.0,
1982-12-09 00:00:00+00:00,0.0,3.1875,3.15625,1.0351414680480957,126400,0.0,
1982-12-10 00:00:00+00:00,0.0,3.179687976837158,3.078125,1.0146446228027344,145600,0.0,
1982-12-13 00:00:00+00:00,0.0,3.0625,2.984375,0.9838972687721252,572800,0.0,
1982-12-14 00:00:00+00:00,0.0,3.078125,3.0,0.9838972687721252,286400,0.0,
1982-12-15 00:00:00+00:00,0.0,3.0,2.96875,0.9762109518051147,160000,0.0,
1982-12-16 00:00:00+00:00,0.0,2.96875,2.882812976837158,0.965962290763855,1177600,0.0,
1982-12-17 00:00:00+00:00,0.0,3.09375,3.015625,1.0146446228027344,291200,0.0,
1982-12-20 00:00:00+00:00,0.0,3.09375,3.046875,1.0095196962356567,868800,0.0,
1982-12-21 00:00:00+00:00,0.0,3.109375,3.078125,1.019768476486206,160000,0.0,
1982-12-22 00:00:00+00:00,0.0,3.234375,3.109375,1.0607644319534302,694400,0.0,
1982-12-23 00:00:00+00:00,0.0,3.3125,3.265625,1.076137661933899,291200,0.0,
1982-12-27 00:00:00+00:00,0.0,3.28125,3.109375,1.0530779361724854,803200,0.0,
1982-12-28 00:00:00+00:00,0.0,3.328125,3.203125,1.0812619924545288,744000,0.0,
1982-12-29 00:00:00+00:00,0.0,3.304687976837158,3.234375,1.076137661933899,473600,0.0,
1982-12-30 00:00:00+00:00,0.0,3.3125,3.265625,1.071013569831848,315200,0.0,
1982-12-31 00:00:00+00:00,0.0,3.25,3.210937976837158,1.0607644319534302,145600,0.0,
1983-01-03 00:00:00+00:00,0.0,3.171875,3.140625,1.0351414680480957,499200,0.0,
1983-01-04 00:00:00+00:00,0.0,3.21875,3.140625,1.0556397438049316,353600,0.0,
1983-01-05 00:00:00+00:00,0.0,3.296875,3.234375,1.0684510469436646,515200,0.0,
1983-01-06 00:00:00+00:00,0.0,3.46875,3.265625,1.1222584247589111,1033600,0.0,
1983-01-07 00:00:00+00:00,0.0,3.609375,3.421875,1.1709407567977903,2430400,0.0,
1983-01-10 00:00:00+00:00,0.0,3.539062976837158,3.46875,1.1478803157806396,899200,0.0,
1983-01-11 00:00:00+00:00,0.0,3.515625,3.453125,1.1478803157806396,830400,0.0,
1983-01-12 00:00:00+00:00,0.0,3.5,3.359375,1.1017602682113647,593600,0.0,
1983-01-13 00:00:00+00:00,0.0,3.390625,3.265625,1.1094471216201782,724800,0.0,
1983-01-14 00:00:00+00:00,0.0,3.40625,3.28125,1.1171334981918335,454400,0.0,
1983-01-17 00:00:00+00:00,0.0,3.414062976837158,3.382812976837158,1.1120083332061768,652800,0.0,
1983-01-18 00:00:00+00:00,0.0,3.484375,3.375,1.1427557468414309,288000,0.0,
1983-01-19 00:00:00+00:00,0.0,3.492187976837158,3.375,1.1325076818466189,1323200,0.0,
1983-01-20 00:00:00+00:00,0.0,3.429687976837158,3.328125,1.1017602682113647,425600,0.0,
1983-01-21 00:00:00+00:00,0.0,3.359375,3.257812976837158,1.076137661933899,241600,0.0,
1983-01-24 00:00:00+00:00,0.0,3.242187976837158,3.15625,1.0556397438049316,656000,0.0,
1983-01-25 00:00:00+00:00,0.0,3.296875,3.171875,1.0556397438049316,332800,0.0,
1983-01-26 00:00:00+00:00,0.0,3.265625,3.21875,1.0607644319534302,328000,0.0,
1983-01-27 00:00:00+00:00,0.0,3.40625,3.265625,1.1017602682113647,484800,0.0,
1983-01-28 00:00:00+00:00,0.0,3.429687976837158,3.375,1.1171334981918335,462400,0.0,
1983-01-31 00:00:00+00:00,0.0,3.445312976837158,3.40625,1.1248199939727783,1908800,0.0,
1983-02-01 00:00:00+00:00,0.0,3.453125,3.375,1.1068836450576782,1342400,0.0,
1983-02-02 00:00:00+00:00,0.0,3.398437976837158,3.34375,1.1068836450576782,249600,0.0,
1983-02-03 00:00:00+00:00,0.0,3.40625,3.351562976837158,1.1120083332061768,200000,0.0,
1983-02-04 00:00:00+00:00,0.0,3.421875,3.34375,1.1171334981918335,1100800,0.0,
1983-02-07 00:00:00+00:00,0.0,3.460937976837158,3.390625,1.1222584247589111,1614400,0.0,
1983-02-08 00:00:00+00:00,0.0,3.421875,3.359375,1.1068836450576782,667200,0.0,
1983-02-09 00:00:00+00:00,0.0,3.375,3.3125,1.1043226718902588,299200,0.0,
1983-02-10 00:00:00+00:00,0.0,3.40625,3.375,1.1171334981918335,784000,0.0,
1983-02-11 00:00:00+00:00,0.0,3.414062976837158,3.390625,1.1171334981918335,768000,0.0,
1983-02-14 00:00:00+00:00,0.0,3.40625,3.390625,1.1120083332061768,532800,0.0,
1983-02-15 00:00:00+00:00,0.0,3.390625,3.328125,1.096635818481445,1260800,0.0,
1983-02-16 00:00:00+00:00,0.0,3.398437976837158,3.34375,1.1068836450576782,881600,0.0,
1983-02-17 00:00:00+00:00,0.0,3.421875,3.34375,1.1120083332061768,2440000,0.0,
1983-02-18 00:00:00+00:00,0.0,3.421875,3.375,1.1068836450576782,846400,0.0,
1983-02-22 00:00:00+00:00,0.0,3.40625,3.375,1.1145713329315186,1120000,0.0,
1983-02-23 00:00:00+00:00,0.0,3.398437976837158,3.34375,1.1145713329315186,1406400,0.0,
1983-02-24 00:00:00+00:00,0.0,3.5625,3.414062976837158,1.1683779954910278,2683200,0.0,
1983-02-25 00:00:00+00:00,0.0,3.601562976837158,3.53125,1.160691738128662,2368000,0.0,
1983-02-28 00:00:00+00:00,0.0,3.625,3.578125,1.1863138675689695,1920000,0.0,
1983-03-01 00:00:00+00:00,0.0,3.703125,3.625,1.209374189376831,1411200,0.0,
1983-03-02 00:00:00+00:00,0.0,3.75,3.695312976837158,1.2273095846176147,1604800,0.0,
1983-03-03 00:00:00+00:00,0.0,3.765625,3.71875,1.2196238040924072,1451200,0.0,
1983-03-04 00:00:00+00:00,0.0,3.734375,3.671875,1.2144986391067505,840000,0.0,
1983-03-07 00:00:00+00:00,0.0,3.734375,3.703125,1.2196238040924072,425600,0.0,
1983-03-08 00:00:00+00:00,0.0,3.734375,3.65625,1.1991249322891235,1718400,0.0,
1983-03-09 00:00:00+00:00,0.0,3.6875,3.640625,1.2042500972747805,366400,0.0,
1983-03-10 00:00:00+00:00,0.0,3.726562976837158,3.6875,1.209374189376831,595200,0.0,
1983-03-11 00:00:00+00:00,0.0,3.695312976837158,3.671875,1.2119362354278564,548800,0.0,
1983-03-14 00:00:00+00:00,0.0,3.734375,3.671875,1.222185730934143,542400,0.0,
1983-03-15 00:00:00+00:00,0.0,3.726562976837158,3.695312976837158,1.222185730934143,740800,0.0,
1983-03-16 00:00:00+00:00,0.0,3.757812976837158,3.734375,1.2298725843429563,1308800,0.0,
1983-03-17 00:00:00+00:00,0.0,3.828125,3.75,1.2503697872161863,859200,0.0,
1983-03-18 00:00:00+00:00,0.0,4.0,3.8125,1.3067389726638794,1619200,0.0,
1983-03-21 00:00:00+00:00,0.0,3.976562976837158,3.875,1.281116604804993,937600,0.0,
1983-03-22 00:00:00+00:00,0.0,3.96875,3.90625,1.291364669799805,1076800,0.0,
1983-03-23 00:00:00+00:00,0.0,3.960937976837158,3.921875,1.2862406969070437,940800,0.0,
1983-03-24 00:00:00+00:00,0.0,3.929687976837158,3.875,1.2759915590286257,536000,0.0,
1983-03-25 00:00:00+00:00,0.0,3.898437976837158,3.859375,1.270867943763733,564800,0.0,
1983-03-28 00:00:00+00:00,0.0,3.898437976837158,3.859375,1.2759915590286257,416000,0.0,
1983-03-29 00:00:00+00:00,0.0,3.890625,3.859375,1.265743374824524,576000,0.0,
1983-03-30 00:00:00+00:00,0.0,3.867187976837158,3.789062976837158,1.252932906150818,403200,0.0,
1983-03-31 00:00:00+00:00,0.0,3.875,3.835937976837158,1.2606178522109983,547200,0.0,
1983-04-04 00:00:00+00:00,0.0,3.875,3.84375,1.265743374824524,168000,0.0,
1983-04-05 00:00:00+00:00,0.0,3.875,3.84375,1.265743374824524,947200,0.0,
1983-04-06 00:00:00+00:00,3.84375,3.859375,3.8125,1.2606178522109983,960000,0.0,
1983-04-07 00:00:00+00:00,3.859375,3.859375,3.828125,1.2606178522109983,464000,0.0,
1983-04-08 00:00:00+00:00,3.84375,3.84375,3.75,1.234996318817139,219200,0.0,
1983-04-11 00:00:00+00:00,3.765625,3.796875,3.75,1.234996318817139,387200,0.0,
1983-04-12 00:00:00+00:00,3.796875,3.828125,3.78125,1.2554941177368164,313600,0.0,
1983-04-13 00:00:00+00:00,3.84375,3.90625,3.84375,1.281116604804993,401600,0.0,
1983-04-14 00:00:00+00:00,3.9375,3.953125,3.914062976837158,1.291364669799805,316800,0.0,
1983-04-15 00:00:00+00:00,3.953125,3.960937976837158,3.914062976837158,1.283678650856018,286400,0.0,
1983-04-18 00:00:00+00:00,3.914062976837158,3.929687976837158,3.888672113418579,1.288803219795227,337600,0.0,
1983-04-19 00:00:00+00:00,3.929687976837158,3.976562976837158,3.898437976837158,1.3041763305664062,494400,0.0,
1983-04-20 00:00:00+00:00,3.976562976837158,3.992187976837158,3.96875,1.3067389726638794,198400,0.0,
1983-04-21 00:00:00+00:00,3.984375,4.015625,3.953125,1.2964894771575928,465600,0.0,
1983-04-22 00:00:00+00:00,3.960937976837158,4.0,3.9375,1.2964894771575928,182400,0.0,
1983-04-25 00:00:00+00:00,3.953125,4.0,3.90625,1.3016140460968018,468800,0.0,
1983-04-26 00:00:00+00:00,3.992187976837158,4.015625,3.96875,1.3118630647659302,272000,0.0,
1983-04-27 00:00:00+00:00,4.046875,4.09375,4.0,1.3195496797561646,387200,0.0,
1983-04-28 00:00:00+00:00,4.03125,4.046875,4.015625,1.3246757984161377,571200,0.0,
1983-04-29 00:00:00+00:00,4.0625,4.085937976837158,4.039062976837158,1.3400484323501587,619200,0.0,
1983-05-02 00:00:00+00:00,4.085937976837158,4.117187976837158,4.046875,1.329798936843872,670400,0.0,
1983-05-03 00:00:00+00:00,4.023437976837158,4.039062976837158,4.0,1.3246757984161377,428800,0.0,
1983-05-04 00:00:00+00:00,4.007812976837158,4.03125,3.976562976837158,1.321365237236023,451200,0.036875,
1983-05-05 00:00:00+00:00,3.96875,4.007812976837158,3.921875,1.3032634258270264,740800,0.0,
1983-05-06 00:00:00+00:00,3.953125,4.078125,3.953125,1.339465856552124,803200,0.0,
1983-05-09 00:00:00+00:00,4.015625,4.0625,4.0,1.3420507907867432,553600,0.0,
1983-05-10 00:00:00+00:00,4.070312976837158,4.070312976837158,4.03125,1.3342934846878052,492800,0.0,
1983-05-11 00:00:00+00:00,4.039062976837158,4.046875,4.0,1.3317080736160278,252800,0.0,
1983-05-12 00:00:00+00:00,4.023437976837158,4.03125,3.96875,1.316192626953125,396800,0.0,
1983-05-13 00:00:00+00:00,3.992187976837158,3.992187976837158,3.960937976837158,1.3187791109085083,225600,0.0,
1983-05-16 00:00:00+00:00,3.96875,4.0,3.9375,1.3239507675170898,356800,0.0,
1983-05-17 00:00:00+00:00,4.0,4.015625,3.976562976837158,1.3291219472885132,288000,0.0,
1983-05-18 00:00:00+00:00,4.007812976837158,4.140625,4.007812976837158,1.3342934846878052,825600,0.0,
1983-05-19 00:00:00+00:00,3.984375,3.984375,3.921875,1.3084346055984497,1417600,0.0,
1983-05-20 00:00:00+00:00,3.953125,4.007812976837158,3.9375,1.326536774635315,321600,0.0,
1983-05-23 00:00:00+00:00,4.015625,4.0625,4.007812976837158,1.336879849433899,488000,0.0,
1983-05-24 00:00:00+00:00,4.046875,4.117187976837158,4.046875,1.3627384901046753,355200,0.0,
1983-05-25 00:00:00+00:00,4.09375,4.117187976837158,4.078125,1.3601518869400024,580800,0.0,
1983-05-26 00:00:00+00:00,4.09375,4.25,4.078125,1.3911824226379397,1388800,0.0,
1983-05-27 00:00:00+00:00,4.203125,4.203125,4.15625,1.3782529830932615,209600,0.0,
1983-05-31 00:00:00+00:00,4.164062976837158,4.171875,4.078125,1.35498046875,601600,0.0,
1983-06-01 00:00:00+00:00,4.0625,4.101562976837158,4.0625,1.3575658798217771,488000,0.0,
1983-06-02 00:00:00+00:00,4.109375,4.117187976837158,3.984375,1.3342934846878052,366400,0.0,
1983-06-03 00:00:00+00:00,4.015625,4.046875,3.96875,1.3342934846878052,1065600,0.0,
1983-06-06 00:00:00+00:00,4.0625,4.078125,4.054687976837158,1.3472230434417725,5444800,0.0,
1983-06-07 00:00:00+00:00,4.085937976837158,4.085937976837158,4.03125,1.339465856552124,457600,0.0,
1983-06-08 00:00:00+00:00,4.046875,4.054687976837158,4.007812976837158,1.326536774635315,444800,0.0,
1983-06-09 00:00:00+00:00,4.015625,4.023437976837158,3.984375,1.326536774635315,427200,0.0,
1983-06-10 00:00:00+00:00,4.023437976837158,4.0625,4.015625,1.3446367979049685,1878400,0.0,
1983-06-13 00:00:00+00:00,4.0625,4.09375,4.0625,1.349808931350708,1062400,0.0,
1983-06-14 00:00:00+00:00,4.078125,4.109375,4.078125,1.3601518869400024,272000,0.0,
1983-06-15 00:00:00+00:00,4.109375,4.125,4.101562976837158,1.3627384901046753,592000,0.0,
1983-06-16 00:00:00+00:00,4.125,4.15625,4.125,1.3756669759750366,628800,0.0,
1983-06-17 00:00:00+00:00,4.15625,4.164062976837158,4.125,1.3653240203857422,1081600,0.0,
1983-06-20 00:00:00+00:00,4.109375,4.140625,4.101562976837158,1.3627384901046753,222400,0.0,
1983-06-21 00:00:00+00:00,4.101562976837158,4.117187976837158,4.046875,1.35498046875,340800,0.0,
1983-06-22 00:00:00+00:00,4.085937976837158,4.109375,4.0625,1.35498046875,435200,0.0,
1983-06-23 00:00:00+00:00,4.09375,4.109375,4.070312976837158,1.3472230434417725,145600,0.0,
1983-06-24 00:00:00+00:00,4.070312976837158,4.09375,4.0625,1.35498046875,212800,0.0,
1983-06-27 00:00:00+00:00,4.070312976837158,4.085937976837158,4.0625,1.349808931350708,609600,0.0,
1983-06-28 00:00:00+00:00,4.09375,4.109375,4.046875,1.339465856552124,428800,0.0,
1983-06-29 00:00:00+00:00,4.039062976837158,4.039062976837158,3.9375,1.3032634258270264,1552000,0.0,
1983-06-30 00:00:00+00:00,3.9375,3.984375,3.921875,1.3136073350906372,534400,0.0,
1983-07-01 00:00:00+00:00,3.953125,4.023437976837158,3.953125,1.3317080736160278,947200,0.0,
1983-07-05 00:00:00+00:00,4.007812976837158,4.007812976837158,3.96875,1.321365237236023,155200,0.0,
1983-07-06 00:00:00+00:00,3.96875,3.992187976837158,3.9375,1.3187791109085083,217600,0.0,
1983-07-07 00:00:00+00:00,3.984375,3.984375,3.921875,1.3136073350906372,452800,0.0,
1983-07-08 00:00:00+00:00,3.96875,3.984375,3.960937976837158,1.3187791109085083,152000,0.0,
1983-07-11 00:00:00+00:00,3.984375,3.992187976837158,3.976562976837158,1.316192626953125,395200,0.0,
1983-07-12 00:00:00+00:00,3.976562976837158,3.976562976837158,3.90625,1.2929203510284424,569600,0.0,
1983-07-13 00:00:00+00:00,3.890625,3.921875,3.859375,1.2799921035766602,291200,0.0,
1983-07-14 00:00:00+00:00,3.90625,3.9375,3.875,1.2903345823287964,419200,0.0,
1983-07-15 00:00:00+00:00,3.90625,3.914062976837158,3.8125,1.267061710357666,329600,0.0,
1983-07-18 00:00:00+00:00,3.804687976837158,3.828125,3.78125,1.261890172958374,827200,0.0,
1983-07-19 00:00:00+00:00,3.804687976837158,3.820312976837158,3.796875,1.261890172958374,497600,0.0,
1983-07-20 00:00:00+00:00,3.8125,3.875,3.8125,1.282577395439148,633600,0.0,
1983-07-21 00:00:00+00:00,4.03125,4.03125,4.0,1.3239507675170898,681600,0.0,
1983-07-22 00:00:00+00:00,4.070312976837158,4.125,4.015625,1.3653240203857422,747200,0.0,
1983-07-25 00:00:00+00:00,4.148437976837158,4.210937976837158,4.148437976837158,1.3937677145004272,441600,0.0,
1983-07-26 00:00:00+00:00,4.21875,4.3125,4.21875,1.4273844957351685,814400,0.0,
1983-07-27 00:00:00+00:00,4.3125,4.3125,4.1875,1.3885971307754517,531200,0.0,
1983-07-28 00:00:00+00:00,4.203125,4.210937976837158,4.0625,1.3523954153060913,384000,0.0,
1983-07-29 00:00:00+00:00,4.03125,4.054687976837158,3.953125,1.321365237236023,771200,0.0,
1983-08-01 00:00:00+00:00,3.90625,3.921875,3.867187976837158,1.2955065965652466,1000000,0.0,
1983-08-02 00:00:00+00:00,3.9375,3.953125,3.90625,1.2955065965652466,254400,0.0,
1983-08-03 00:00:00+00:00,3.890625,3.90625,3.84375,1.282577395439148,656000,0.0,
1983-08-04 00:00:00+00:00,3.796875,3.84375,3.65625,1.2410860061645508,812800,0.04,
1983-08-05 00:00:00+00:00,3.6875,3.757812976837158,3.6875,1.2489237785339355,881600,0.0,
1983-08-08 00:00:00+00:00,3.703125,3.828125,3.703125,1.2489237785339355,472000,0.0,
1983-08-09 00:00:00+00:00,3.765625,3.765625,3.65625,1.2280216217041016,2072000,0.0,
1983-08-10 00:00:00+00:00,3.640625,3.640625,3.5,1.1809910535812378,1752000,0.0,
1983-08-11 00:00:00+00:00,3.53125,3.609375,3.5,1.191441774368286,923200,0.0,
1983-08-12 00:00:00+00:00,3.59375,3.65625,3.578125,1.2149571180343628,320000,0.0,
1983-08-15 00:00:00+00:00,3.664062976837158,3.765625,3.664062976837158,1.2541499137878418,304000,0.0,
1983-08-16 00:00:00+00:00,3.75,3.75,3.632812976837158,1.2280216217041016,900800,0.0,
1983-08-17 00:00:00+00:00,3.65625,3.75,3.65625,1.2489237785339355,868800,0.0,
1983-08-18 00:00:00+00:00,3.765625,3.796875,3.703125,1.2410860061645508,305600,0.0,
1983-08-19 00:00:00+00:00,3.71875,3.742187976837158,3.703125,1.2489237785339355,187200,0.0,
1983-08-22 00:00:00+00:00,3.742187976837158,3.8125,3.734375,1.251536250114441,1060800,0.0,
1983-08-23 00:00:00+00:00,3.773437976837158,3.8125,3.75,1.2672134637832642,288000,0.0,
1983-08-24 00:00:00+00:00,3.765625,3.765625,3.726562976837158,1.2489237785339355,225600,0.0,
1983-08-25 00:00:00+00:00,3.71875,3.8125,3.710937976837158,1.272439956665039,550400,0.0,
1983-08-26 00:00:00+00:00,3.8125,3.90625,3.8125,1.3064054250717163,433600,0.0,
1983-08-29 00:00:00+00:00,3.921875,3.960937976837158,3.882812976837158,1.3194698095321655,259200,0.0,
1983-08-30 00:00:00+00:00,3.953125,4.070312976837158,3.953125,1.3377599716186523,1729600,0.0,
1983-08-31 00:00:00+00:00,3.96875,3.984375,3.96875,1.3325344324111938,924800,0.0,
1983-09-01 00:00:00+00:00,3.96875,4.0625,3.96875,1.3534364700317385,502400,0.0,
1983-09-02 00:00:00+00:00,4.0625,4.125,4.046875,1.3795647621154783,310400,0.0,
1983-09-06 00:00:00+00:00,4.171875,4.203125,4.15625,1.4004666805267334,457600,0.0,
1983-09-07 00:00:00+00:00,4.21875,4.335937976837158,4.21875,1.450110912322998,1228800,0.0,
1983-09-08 00:00:00+00:00,4.34375,4.375,4.320312976837158,1.4579483270645142,628800,0.0,
1983-09-09 00:00:00+00:00,4.359375,4.375,4.28125,1.431821584701538,2353600,0.0,
1983-09-12 00:00:00+00:00,4.296875,4.375,4.25,1.4239832162857056,604800,0.0,
1983-09-13 00:00:00+00:00,4.265625,4.265625,4.125,1.4004666805267334,381600,0.0,
1983-09-14 00:00:00+00:00,4.21875,4.21875,4.15625,1.4056929349899292,126400,0.0,
1983-09-15 00:00:00+00:00,4.203125,4.21875,4.1875,1.4109190702438354,356800,0.0,
1983-09-16 00:00:00+00:00,4.1875,4.1875,4.0625,1.3691130876541138,581600,0.0,
1983-09-19 00:00:00+00:00,4.125,4.21875,4.09375,1.3952412605285645,172800,0.0,
1983-09-20 00:00:00+00:00,4.140625,4.25,4.140625,1.421369552612305,395200,0.0,
1983-09-21 00:00:00+00:00,4.25,4.46875,4.203125,1.494527816772461,999200,0.0,
1983-09-22 00:00:00+00:00,4.46875,4.46875,4.375,1.4840774536132812,1304000,0.0,
1983-09-23 00:00:00+00:00,4.421875,4.546875,4.40625,1.5206555128097534,452800,0.0,
1983-09-26 00:00:00+00:00,4.546875,4.578125,4.46875,1.499753475189209,338400,0.0,
1983-09-27 00:00:00+00:00,4.5,4.53125,4.4375,1.504979133605957,402400,0.0,
1983-09-28 00:00:00+00:00,4.46875,4.53125,4.453125,1.4893035888671875,150400,0.0,
1983-09-29 00:00:00+00:00,4.4375,4.5,4.34375,1.452723503112793,211200,0.0,
1983-09-30 00:00:00+00:00,4.28125,4.28125,4.09375,1.374338984489441,1076800,0.0,
1983-10-03 00:00:00+00:00,4.109375,4.109375,4.015625,1.374338984489441,313600,0.0,
1983-10-04 00:00:00+00:00,4.078125,4.265625,4.078125,1.4161436557769775,366400,0.0,
1983-10-05 00:00:00+00:00,4.1875,4.25,4.15625,1.421369552612305,376000,0.0,
1983-10-06 00:00:00+00:00,4.25,4.390625,4.21875,1.452723503112793,899200,0.0,
1983-10-07 00:00:00+00:00,4.5625,4.625,4.5625,1.5415585041046145,759200,0.0,
1983-10-10 00:00:00+00:00,4.5625,4.5625,4.515625,1.5102052688598633,546400,0.0,
1983-10-11 00:00:00+00:00,4.5625,4.59375,4.5,1.504979133605957,453600,0.0,
1983-10-12 00:00:00+00:00,4.5,4.578125,4.46875,1.525881052017212,406400,0.0,
1983-10-13 00:00:00+00:00,4.625,4.65625,4.5625,1.5311073064804075,558400,0.0,
1983-10-14 00:00:00+00:00,4.5625,4.609375,4.515625,1.5206555128097534,148000,0.0,
1983-10-17 00:00:00+00:00,4.53125,4.53125,4.375,1.4736260175704956,324000,0.0,
1983-10-18 00:00:00+00:00,4.515625,4.53125,4.375,1.4736260175704956,324000,0.0,
1983-10-19 00:00:00+00:00,4.421875,4.5625,4.375,1.4736260175704956,2216000,0.0,
1983-10-20 00:00:00+00:00,4.4375,4.53125,4.40625,1.494527816772461,604800,0.0,
1983-10-21 00:00:00+00:00,4.453125,4.5625,4.453125,1.5154304504394531,1336000,0.0,
1983-10-24 00:00:00+00:00,4.53125,4.578125,4.5,1.525881052017212,313600,0.0,
1983-10-25 00:00:00+00:00,4.5625,4.59375,4.53125,1.5206555128097534,668800,0.0,
1983-10-26 00:00:00+00:00,4.546875,4.578125,4.453125,1.5102052688598633,351200,0.0,
1983-10-27 00:00:00+00:00,4.5,4.5625,4.484375,1.499753475189209,41600,0.0,
1983-10-28 00:00:00+00:00,4.484375,4.53125,4.484375,1.504979133605957,607200,0.0,
1983-10-31 00:00:00+00:00,4.53125,4.59375,4.515625,1.525881052017212,478400,0.0,
1983-11-01 00:00:00+00:00,4.578125,4.578125,4.4375,1.494527816772461,793600,0.0,
1983-11-02 00:00:00+00:00,4.46875,4.5625,4.453125,1.5206555128097534,877600,0.0,
1983-11-03 00:00:00+00:00,4.53125,4.53125,4.453125,1.5077927112579346,236000,0.04,
1983-11-04 00:00:00+00:00,4.375,4.453125,4.34375,1.465616226196289,336800,0.0,
1983-11-07 00:00:00+00:00,4.375,4.40625,4.25,1.444528579711914,408000,0.0,
1983-11-08 00:00:00+00:00,4.28125,4.28125,4.203125,1.4181687831878662,435200,0.0,
1983-11-09 00:00:00+00:00,4.234375,4.28125,4.203125,1.4339853525161743,176800,0.0,
1983-11-10 00:00:00+00:00,4.25,4.28125,4.1875,1.4181687831878662,495200,0.0,
1983-11-11 00:00:00+00:00,4.234375,4.3125,4.21875,1.4550725221633911,1606400,0.0,
1983-11-14 00:00:00+00:00,4.328125,4.4375,4.328125,1.4761604070663452,616000,0.0,
1983-11-15 00:00:00+00:00,4.359375,4.390625,4.34375,1.465616226196289,920800,0.0,
1983-11-16 00:00:00+00:00,4.3125,4.40625,4.296875,1.4867043495178225,454400,0.0,
1983-11-17 00:00:00+00:00,4.359375,4.421875,4.359375,1.4814330339431765,792000,0.0,
1983-11-18 00:00:00+00:00,4.359375,4.390625,4.328125,1.4814330339431765,531200,0.0,
1983-11-21 00:00:00+00:00,4.421875,4.4375,4.375,1.4867043495178225,281600,0.0,
1983-11-22 00:00:00+00:00,4.4375,4.5625,4.40625,1.528880000114441,636800,0.0,
1983-11-23 00:00:00+00:00,4.546875,4.65625,4.546875,1.5446960926055908,619200,0.0,
1983-11-25 00:00:00+00:00,4.625,4.625,4.59375,1.549968719482422,273600,0.0,
1983-11-28 00:00:00+00:00,4.59375,4.625,4.53125,1.5394247770309448,770400,0.0,
1983-11-29 00:00:00+00:00,4.5625,4.5625,4.4375,1.4972480535507202,1019200,0.0,
1983-11-30 00:00:00+00:00,4.5,4.546875,4.46875,1.523609280586243,844000,0.0,
1983-12-01 00:00:00+00:00,4.484375,4.546875,4.484375,1.5183368921279907,309600,0.0,
1983-12-02 00:00:00+00:00,4.46875,4.5625,4.46875,1.534152626991272,124800,0.0,
1983-12-05 00:00:00+00:00,4.515625,4.515625,4.4375,1.5183368921279907,754400,0.0,
1983-12-06 00:00:00+00:00,4.515625,4.515625,4.46875,1.5077927112579346,184000,0.0,
1983-12-07 00:00:00+00:00,4.4375,4.5,4.4375,1.4972480535507202,735200,0.0,
1983-12-08 00:00:00+00:00,4.46875,4.46875,4.40625,1.4972480535507202,628800,0.0,
1983-12-09 00:00:00+00:00,4.40625,4.453125,4.40625,1.4972480535507202,500000,0.0,
1983-12-12 00:00:00+00:00,4.390625,4.4375,4.390625,1.4814330339431765,120000,0.0,
1983-12-13 00:00:00+00:00,4.40625,4.453125,4.375,1.4867043495178225,100000,0.0,
1983-12-14 00:00:00+00:00,4.375,4.40625,4.34375,1.465616226196289,1194400,0.0,
1983-12-15 00:00:00+00:00,4.25,4.3125,4.25,1.439256191253662,192800,0.0,
1983-12-16 00:00:00+00:00,4.265625,4.28125,4.1875,1.4287123680114746,640800,0.0,
1983-12-19 00:00:00+00:00,4.203125,4.375,4.203125,1.449800729751587,1264000,0.0,
1983-12-20 00:00:00+00:00,4.28125,4.375,4.28125,1.449800729751587,405600,0.0,
1983-12-21 00:00:00+00:00,4.296875,4.3125,4.21875,1.4550725221633911,792800,0.0,
1983-12-22 00:00:00+00:00,4.3125,4.34375,4.25,1.4339853525161743,403200,0.0,
1983-12-23 00:00:00+00:00,4.203125,4.25,4.203125,1.4234404563903809,127200,0.0,
1983-12-27 00:00:00+00:00,4.234375,4.328125,4.234375,1.460344672203064,384800,0.0,
1983-12-28 00:00:00+00:00,4.3125,4.328125,4.25,1.449800729751587,1399200,0.0,
1983-12-29 00:00:00+00:00,4.3125,4.4375,4.296875,1.4972480535507202,188800,0.0,
1983-12-30 00:00:00+00:00,4.46875,4.46875,4.34375,1.47088885307312,563200,0.0,
1984-01-03 00:00:00+00:00,4.328125,4.453125,4.328125,1.465616226196289,460000,0.0,
1984-01-04 00:00:00+00:00,4.328125,4.375,4.3125,1.465616226196289,1320800,0.0,
1984-01-05 00:00:00+00:00,4.375,4.609375,4.34375,1.5394247770309448,1296000,0.0,
1984-01-06 00:00:00+00:00,4.59375,4.625,4.53125,1.549968719482422,693600,0.0,
1984-01-09 00:00:00+00:00,4.59375,4.75,4.578125,1.5763280391693115,900800,0.0,
1984-01-10 00:00:00+00:00,4.703125,4.71875,4.578125,1.5446960926055908,532000,0.0,
1984-01-11 00:00:00+00:00,4.5625,4.609375,4.5,1.5446960926055908,502400,0.0,
1984-01-12 00:00:00+00:00,4.53125,4.5625,4.46875,1.5183368921279907,204000,0.0,
1984-01-13 00:00:00+00:00,4.4375,4.4375,4.3125,1.4761604070663452,294400,0.0,
1984-01-16 00:00:00+00:00,4.34375,4.421875,4.3125,1.491976618766785,391200,0.0,
1984-01-17 00:00:00+00:00,4.421875,4.4375,4.375,1.491976618766785,351200,0.0,
1984-01-18 00:00:00+00:00,4.421875,4.4375,4.34375,1.4761604070663452,552800,0.0,
1984-01-19 00:00:00+00:00,4.40625,4.46875,4.40625,1.4972480535507202,529600,0.0,
1984-01-20 00:00:00+00:00,4.484375,4.484375,4.453125,1.502521276473999,268000,0.0,
1984-01-23 00:00:00+00:00,4.4375,4.4375,4.296875,1.449800729751587,2306400,0.0,
1984-01-24 00:00:00+00:00,4.296875,4.328125,4.21875,1.4234404563903809,504800,0.0,
1984-01-25 00:00:00+00:00,4.25,4.296875,4.1875,1.4234404563903809,560800,0.0,
1984-01-26 00:00:00+00:00,4.15625,4.1875,4.0625,1.4023516178131104,846400,0.0,
1984-01-27 00:00:00+00:00,4.125,4.1875,4.09375,1.3918092250823977,588800,0.0,
1984-01-30 00:00:00+00:00,4.078125,4.078125,3.96875,1.3496323823928833,643200,0.0,
1984-01-31 00:00:00+00:00,4.0,4.09375,3.96875,1.3496323823928833,533600,0.0,
1984-02-01 00:00:00+00:00,4.0,4.0625,3.8125,1.3390882015228271,642400,0.0,
1984-02-02 00:00:00+00:00,3.921875,3.953125,3.859375,1.307456374168396,502400,0.0,
1984-02-03 00:00:00+00:00,3.90625,4.0,3.90625,1.328545093536377,748800,0.0,
1984-02-06 00:00:00+00:00,3.890625,3.96875,3.859375,1.328545093536377,1136800,0.0,
1984-02-07 00:00:00+00:00,3.921875,3.953125,3.875,1.3338162899017334,891200,0.0,
1984-02-08 00:00:00+00:00,4.03125,4.0625,3.921875,1.328545093536377,405600,0.0,
1984-02-09 00:00:00+00:00,3.921875,3.96875,3.8125,1.2969123125076294,765600,0.0,
1984-02-10 00:00:00+00:00,3.84375,3.875,3.71875,1.275823950767517,756000,0.0,
1984-02-13 00:00:00+00:00,3.796875,3.796875,3.71875,1.2705520391464231,352000,0.0,
1984-02-14 00:00:00+00:00,3.78125,3.78125,3.625,1.2788649797439575,989600,0.04,
1984-02-15 00:00:00+00:00,3.75,3.75,3.59375,1.2362364530563354,422400,0.0,
1984-02-16 00:00:00+00:00,3.671875,3.6875,3.546875,1.2362364530563354,396800,0.0,
1984-02-17 00:00:00+00:00,3.625,3.640625,3.421875,1.182950139045715,993600,0.0,
1984-02-21 00:00:00+00:00,3.484375,3.5,3.4375,1.1882789134979248,616000,0.0,
1984-02-22 00:00:00+00:00,3.484375,3.609375,3.4375,1.2202504873275757,3064800,0.0,
1984-02-23 00:00:00+00:00,3.578125,3.578125,3.4375,1.2095929384231567,684000,0.0,
1984-02-24 00:00:00+00:00,3.5625,3.625,3.53125,1.225579023361206,696000,0.0,
1984-02-27 00:00:00+00:00,3.671875,3.8125,3.640625,1.2895219326019287,732800,0.0,
1984-02-28 00:00:00+00:00,3.78125,3.78125,3.625,1.2468931674957275,644800,0.0,
1984-02-29 00:00:00+00:00,3.65625,3.796875,3.65625,1.2735364437103271,277600,0.0,
1984-03-01 00:00:00+00:00,3.75,3.8125,3.6875,1.2895219326019287,355200,0.0,
1984-03-02 00:00:00+00:00,3.75,3.8125,3.6875,1.2895219326019287,1381600,0.0,
1984-03-05 00:00:00+00:00,3.8125,3.90625,3.71875,1.2682082653045654,566400,0.0,
1984-03-06 00:00:00+00:00,3.75,3.8125,3.71875,1.284193515777588,408800,0.0,
1984-03-07 00:00:00+00:00,3.71875,3.8125,3.6875,1.2788649797439575,195200,0.0,
1984-03-08 00:00:00+00:00,3.734375,3.765625,3.65625,1.2682082653045654,291200,0.0,
1984-03-09 00:00:00+00:00,3.75,3.75,3.65625,1.2468931674957275,484000,0.0,
1984-03-12 00:00:00+00:00,3.671875,3.796875,3.671875,1.2788649797439575,291200,0.0,
1984-03-13 00:00:00+00:00,3.78125,3.875,3.78125,1.3001792430877686,470400,0.0,
1984-03-14 00:00:00+00:00,3.8125,3.859375,3.78125,1.3001792430877686,1076000,0.0,
1984-03-15 00:00:00+00:00,3.8125,3.859375,3.78125,1.3001792430877686,289600,0.0,
1984-03-16 00:00:00+00:00,3.90625,3.9375,3.890625,1.337479829788208,772000,0.0,
1984-03-19 00:00:00+00:00,3.890625,3.890625,3.8125,1.316165328025818,313600,0.0,
1984-03-20 00:00:00+00:00,3.828125,3.859375,3.796875,1.316165328025818,220800,0.0,
1984-03-21 00:00:00+00:00,3.828125,3.9375,3.828125,1.3214937448501587,252800,0.0,
1984-03-22 00:00:00+00:00,3.90625,3.90625,3.78125,1.305508017539978,209600,0.0,
1984-03-23 00:00:00+00:00,3.8125,3.84375,3.75,1.2895219326019287,304800,0.0,
1984-03-26 00:00:00+00:00,3.78125,3.8125,3.75,1.2948511838912964,122400,0.0,
1984-03-27 00:00:00+00:00,3.765625,3.8125,3.75,1.2948511838912964,103200,0.0,
1984-03-28 00:00:00+00:00,3.796875,3.828125,3.78125,1.3001792430877686,248800,0.0,
1984-03-29 00:00:00+00:00,3.828125,3.828125,3.765625,1.2948511838912964,260800,0.0,
1984-03-30 00:00:00+00:00,3.796875,3.8125,3.71875,1.2948511838912964,354400,0.0,
1984-04-02 00:00:00+00:00,3.765625,3.796875,3.640625,1.2415651082992554,433600,0.0,
1984-04-03 00:00:00+00:00,3.640625,3.71875,3.625,1.2575503587722778,559200,0.0,
1984-04-04 00:00:00+00:00,3.65625,3.71875,3.65625,1.262879490852356,249600,0.0,
1984-04-05 00:00:00+00:00,3.703125,3.71875,3.65625,1.262879490852356,140800,0.0,
1984-04-06 00:00:00+00:00,3.671875,3.6875,3.640625,1.2468931674957275,188000,0.0,
1984-04-09 00:00:00+00:00,3.6875,3.71875,3.5,1.1989363431930542,860800,0.0,
1984-04-10 00:00:00+00:00,3.5,3.53125,3.453125,1.1776212453842163,480800,0.0,
1984-04-11 00:00:00+00:00,3.4375,3.453125,3.390625,1.1722930669784546,2084800,0.0,
1984-04-12 00:00:00+00:00,3.484375,3.578125,3.484375,1.2095929384231567,885600,0.0,
1984-04-13 00:00:00+00:00,3.578125,3.59375,3.4375,1.1882789134979248,2246400,0.0,
1984-04-16 00:00:00+00:00,3.5,3.5,3.421875,1.182950139045715,888800,0.0,
1984-04-17 00:00:00+00:00,3.5,3.546875,3.484375,1.1936076879501345,1244800,0.0,
1984-04-18 00:00:00+00:00,3.515625,3.53125,3.5,1.1989363431930542,1323200,0.0,
1984-04-19 00:00:00+00:00,3.53125,3.578125,3.5,1.2149221897125244,290400,0.0,
1984-04-23 00:00:00+00:00,3.59375,3.609375,3.546875,1.2149221897125244,242400,0.0,
1984-04-24 00:00:00+00:00,3.53125,3.609375,3.484375,1.1936076879501345,612800,0.0,
1984-04-25 00:00:00+00:00,3.53125,3.59375,3.515625,1.2149221897125244,840800,0.0,
1984-04-26 00:00:00+00:00,3.59375,3.75,3.59375,1.262879490852356,1172800,0.0,
1984-04-27 00:00:00+00:00,3.734375,3.8125,3.703125,1.2788649797439575,596800,0.0,
1984-04-30 00:00:00+00:00,3.75,3.796875,3.703125,1.2895219326019287,315200,0.0,
1984-05-01 00:00:00+00:00,3.796875,3.84375,3.78125,1.3108367919921875,473600,0.0,
1984-05-02 00:00:00+00:00,3.859375,3.875,3.78125,1.316165328025818,392800,0.0,
1984-05-03 00:00:00+00:00,3.890625,3.890625,3.78125,1.305508017539978,353600,0.0,
1984-05-04 00:00:00+00:00,3.78125,3.796875,3.59375,1.261725664138794,682400,0.045,
1984-05-07 00:00:00+00:00,3.71875,3.75,3.65625,1.2940765619277954,988000,0.0,
1984-05-08 00:00:00+00:00,3.75,3.828125,3.71875,1.31564462184906,811200,0.0,
1984-05-09 00:00:00+00:00,3.8125,3.875,3.765625,1.304861545562744,752000,0.0,
1984-05-10 00:00:00+00:00,3.78125,3.78125,3.734375,1.304861545562744,208800,0.0,
1984-05-11 00:00:00+00:00,3.78125,3.78125,3.5625,1.2779014110565186,575200,0.0,
1984-05-14 00:00:00+00:00,3.71875,3.71875,3.578125,1.2509411573410034,273600,0.0,
1984-05-15 00:00:00+00:00,3.625,3.640625,3.5625,1.2347657680511477,702400,0.0,
1984-05-16 00:00:00+00:00,3.5625,3.5625,3.453125,1.229373812675476,1334400,0.0,
1984-05-17 00:00:00+00:00,3.53125,3.5625,3.46875,1.1970213651657104,1342400,0.0,
1984-05-18 00:00:00+00:00,3.453125,3.5,3.40625,1.180845022201538,908800,0.0,
1984-05-21 00:00:00+00:00,3.40625,3.46875,3.390625,1.180845022201538,536800,0.0,
1984-05-22 00:00:00+00:00,3.421875,3.421875,3.28125,1.1538857221603394,1011200,0.0,
1984-05-23 00:00:00+00:00,3.359375,3.421875,3.34375,1.1700620651245115,583200,0.0,
1984-05-24 00:00:00+00:00,3.375,3.40625,3.296875,1.1538857221603394,1495200,0.0,
1984-05-25 00:00:00+00:00,3.375,3.40625,3.28125,1.1431012153625488,728000,0.0,
1984-05-29 00:00:00+00:00,3.34375,3.359375,3.1875,1.1215335130691528,768000,0.0,
1984-05-30 00:00:00+00:00,3.28125,3.28125,3.125,1.089181423187256,3813600,0.0,
1984-05-31 00:00:00+00:00,3.109375,3.171875,3.09375,1.0783978700637815,1299200,0.0,
1984-06-01 00:00:00+00:00,3.1875,3.234375,3.171875,1.1053577661514282,1281600,0.0,
1984-06-04 00:00:00+00:00,3.21875,3.46875,3.21875,1.164669632911682,2139200,0.0,
1984-06-05 00:00:00+00:00,3.40625,3.40625,3.28125,1.1538857221603394,825600,0.0,
1984-06-06 00:00:00+00:00,3.40625,3.46875,3.40625,1.1970213651657104,440000,0.0,
1984-06-07 00:00:00+00:00,3.46875,3.515625,3.46875,1.2131973505020142,6442400,0.0,
1984-06-08 00:00:00+00:00,3.53125,3.546875,3.484375,1.2185893058776855,396800,0.0,
1984-06-11 00:00:00+00:00,3.5625,3.5625,3.515625,1.2185893058776855,323200,0.0,
1984-06-12 00:00:00+00:00,3.484375,3.5,3.453125,1.207804560661316,284000,0.0,
1984-06-13 00:00:00+00:00,3.5,3.53125,3.484375,1.2131973505020142,260800,0.0,
1984-06-14 00:00:00+00:00,3.5,3.515625,3.421875,1.1916288137435913,861600,0.0,
1984-06-15 00:00:00+00:00,3.453125,3.484375,3.375,1.1754530668258667,334400,0.0,
1984-06-18 00:00:00+00:00,3.375,3.484375,3.375,1.1970213651657104,472000,0.0,
1984-06-19 00:00:00+00:00,3.5,3.5,3.4375,1.202412724494934,385600,0.0,
1984-06-20 00:00:00+00:00,3.453125,3.46875,3.375,1.1970213651657104,2826400,0.0,
1984-06-21 00:00:00+00:00,3.46875,3.46875,3.421875,1.1916288137435913,983200,0.0,
1984-06-22 00:00:00+00:00,3.453125,3.453125,3.390625,1.1916288137435913,839200,0.0,
1984-06-25 00:00:00+00:00,3.484375,3.515625,3.453125,1.1970213651657104,1771200,0.0,
1984-06-26 00:00:00+00:00,3.5,3.546875,3.46875,1.1970213651657104,2021600,0.0,
1984-06-27 00:00:00+00:00,3.4375,3.46875,3.375,1.186237096786499,542400,0.0,
1984-06-28 00:00:00+00:00,3.4375,3.4375,3.390625,1.186237096786499,572000,0.0,
1984-06-29 00:00:00+00:00,3.4375,3.484375,3.4375,1.202412724494934,1027200,0.0,
1984-07-02 00:00:00+00:00,3.53125,3.53125,3.453125,1.202412724494934,511200,0.0,
1984-07-03 00:00:00+00:00,3.5,3.59375,3.46875,1.229373812675476,676000,0.0,
1984-07-05 00:00:00+00:00,3.5625,3.578125,3.5,1.2239816188812256,293600,0.0,
1984-07-06 00:00:00+00:00,3.53125,3.65625,3.484375,1.2239816188812256,331200,0.0,
1984-07-09 00:00:00+00:00,3.59375,3.625,3.578125,1.2509411573410034,264000,0.0,
1984-07-10 00:00:00+00:00,3.65625,3.78125,3.65625,1.283292531967163,552800,0.0,
1984-07-11 00:00:00+00:00,3.71875,3.75,3.65625,1.2725082635879517,184000,0.0,
1984-07-12 00:00:00+00:00,3.625,3.6875,3.5625,1.2509411573410034,382400,0.0,
1984-07-13 00:00:00+00:00,3.65625,3.6875,3.546875,1.2455499172210691,687200,0.0,
1984-07-16 00:00:00+00:00,3.609375,3.65625,3.546875,1.2509411573410034,436000,0.0,
1984-07-17 00:00:00+00:00,3.625,3.6875,3.609375,1.261725664138794,928800,0.0,
1984-07-18 00:00:00+00:00,3.65625,3.65625,3.53125,1.2509411573410034,272800,0.0,
1984-07-19 00:00:00+00:00,3.625,3.625,3.46875,1.207804560661316,314400,0.0,
1984-07-20 00:00:00+00:00,3.53125,3.625,3.53125,1.2401572465896606,136000,0.0,
1984-07-23 00:00:00+00:00,3.59375,3.59375,3.53125,1.2239816188812256,532000,0.0,
1984-07-24 00:00:00+00:00,3.546875,3.59375,3.53125,1.2239816188812256,476800,0.0,
1984-07-25 00:00:00+00:00,3.546875,3.578125,3.515625,1.2239816188812256,224800,0.0,
1984-07-26 00:00:00+00:00,3.578125,3.578125,3.5,1.2185893058776855,936800,0.0,
1984-07-27 00:00:00+00:00,3.5,3.625,3.46875,1.2185893058776855,457600,0.0,
1984-07-30 00:00:00+00:00,3.546875,3.609375,3.46875,1.207804560661316,628000,0.0,
1984-07-31 00:00:00+00:00,3.484375,3.53125,3.40625,1.1916288137435913,531200,0.0,
1984-08-01 00:00:00+00:00,3.484375,3.734375,3.484375,1.2509411573410034,1785600,0.0,
1984-08-02 00:00:00+00:00,3.625,3.75,3.625,1.2940765619277954,1441600,0.0,
1984-08-03 00:00:00+00:00,3.875,3.9375,3.828125,1.337213397026062,1789600,0.0,
1984-08-06 00:00:00+00:00,3.859375,3.9375,3.8125,1.3747460842132568,2960800,0.045,
1984-08-07 00:00:00+00:00,3.90625,4.046875,3.890625,1.391111969947815,716000,0.0,
1984-08-08 00:00:00+00:00,3.984375,4.0,3.9375,1.3747460842132568,592000,0.0,
1984-08-09 00:00:00+00:00,3.9375,4.125,3.875,1.434754729270935,1179200,0.0,
1984-08-10 00:00:00+00:00,4.09375,4.234375,4.09375,1.462031364440918,1677600,0.0,
1984-08-13 00:00:00+00:00,4.15625,4.1875,4.0625,1.4238438606262207,1063200,0.0,
1984-08-14 00:00:00+00:00,4.15625,4.15625,4.09375,1.429298996925354,637600,0.0,
1984-08-15 00:00:00+00:00,4.03125,4.109375,3.96875,1.4238438606262207,536000,0.0,
1984-08-16 00:00:00+00:00,4.046875,4.15625,4.046875,1.429298996925354,495200,0.0,
1984-08-17 00:00:00+00:00,4.125,4.15625,4.09375,1.434754729270935,474400,0.0,
1984-08-20 00:00:00+00:00,4.09375,4.1875,4.09375,1.462031364440918,893600,0.0,
1984-08-21 00:00:00+00:00,4.21875,4.28125,4.15625,1.478398084640503,700000,0.0,
1984-08-22 00:00:00+00:00,4.234375,4.234375,4.125,1.4729419946670532,1062400,0.0,
1984-08-23 00:00:00+00:00,4.1875,4.21875,4.171875,1.462031364440918,199200,0.0,
1984-08-24 00:00:00+00:00,4.1875,4.3125,4.1875,1.5002193450927734,376800,0.0,
1984-08-27 00:00:00+00:00,4.3125,4.3125,4.21875,1.4947632551193235,188800,0.0,
1984-08-28 00:00:00+00:00,4.25,4.296875,4.21875,1.478398084640503,974400,0.0,
1984-08-29 00:00:00+00:00,4.25,4.28125,4.171875,1.462031364440918,725600,0.0,
1984-08-30 00:00:00+00:00,4.15625,4.203125,4.140625,1.4511207342147827,276000,0.0,
1984-08-31 00:00:00+00:00,4.125,4.1875,4.09375,1.462031364440918,365600,0.0,
1984-09-04 00:00:00+00:00,4.15625,4.171875,4.140625,1.4565759897232056,382400,0.0,
1984-09-05 00:00:00+00:00,4.140625,4.171875,4.078125,1.4456653594970703,368000,0.0,
1984-09-06 00:00:00+00:00,4.171875,4.203125,4.171875,1.462031364440918,220000,0.0,
1984-09-07 00:00:00+00:00,4.234375,4.25,4.15625,1.462031364440918,332000,0.0,
1984-09-10 00:00:00+00:00,4.15625,4.21875,4.140625,1.462031364440918,212800,0.0,
1984-09-11 00:00:00+00:00,4.21875,4.28125,4.21875,1.4838526248931885,533600,0.0,
1984-09-12 00:00:00+00:00,4.21875,4.25,4.1875,1.4729419946670532,748800,0.0,
1984-09-13 00:00:00+00:00,4.1875,4.34375,4.1875,1.5165845155715942,1043200,0.0,
1984-09-14 00:00:00+00:00,4.359375,4.375,4.296875,1.5165845155715942,648800,0.0,
1984-09-17 00:00:00+00:00,4.3125,4.40625,4.3125,1.538406491279602,676800,0.0,
1984-09-18 00:00:00+00:00,4.421875,4.484375,4.40625,1.5656826496124268,744800,0.0,
1984-09-19 00:00:00+00:00,4.453125,4.515625,4.421875,1.5493170022964478,767200,0.0,
1984-09-20 00:00:00+00:00,4.40625,4.484375,4.40625,1.5602269172668457,536800,0.0,
1984-09-21 00:00:00+00:00,4.4375,4.484375,4.4375,1.5493170022964478,721600,0.0,
1984-09-24 00:00:00+00:00,4.421875,4.484375,4.40625,1.5602269172668457,444000,0.0,
1984-09-25 00:00:00+00:00,4.453125,4.453125,4.375,1.5438625812530518,1692000,0.0,
1984-09-26 00:00:00+00:00,4.40625,4.46875,4.359375,1.522040605545044,603200,0.0,
1984-09-27 00:00:00+00:00,4.390625,4.40625,4.28125,1.5274956226348877,757600,0.0,
1984-09-28 00:00:00+00:00,4.265625,4.265625,4.15625,1.4729419946670532,817600,0.0,
1984-10-01 00:00:00+00:00,4.1875,4.25,4.171875,1.4729419946670532,296800,0.0,
1984-10-02 00:00:00+00:00,4.203125,4.28125,4.171875,1.4565759897232056,294400,0.0,
1984-10-03 00:00:00+00:00,4.140625,4.1875,4.0,1.4074779748916626,1790400,0.0,
1984-10-04 00:00:00+00:00,4.03125,4.09375,4.03125,1.429298996925354,644000,0.0,
1984-10-05 00:00:00+00:00,4.125,4.21875,4.125,1.4565759897232056,310400,0.0,
1984-10-08 00:00:00+00:00,4.15625,4.171875,4.078125,1.434754729270935,121600,0.0,
1984-10-09 00:00:00+00:00,4.109375,4.15625,4.09375,1.4456653594970703,1056000,0.0,
1984-10-10 00:00:00+00:00,4.140625,4.15625,4.03125,1.4511207342147827,262400,0.0,
1984-10-11 00:00:00+00:00,4.140625,4.21875,4.140625,1.4729419946670532,126400,0.0,
1984-10-12 00:00:00+00:00,4.1875,4.328125,4.1875,1.5002193450927734,442400,0.0,
1984-10-15 00:00:00+00:00,4.3125,4.390625,4.28125,1.5165845155715942,1718400,0.0,
1984-10-16 00:00:00+00:00,4.328125,4.34375,4.1875,1.4729419946670532,244000,0.0,
1984-10-17 00:00:00+00:00,4.21875,4.28125,4.1875,1.4838526248931885,328800,0.0,
1984-10-18 00:00:00+00:00,4.21875,4.34375,4.21875,1.5165845155715942,368000,0.0,
1984-10-19 00:00:00+00:00,4.34375,4.5625,4.34375,1.5438625812530518,1361600,0.0,
1984-10-22 00:00:00+00:00,4.421875,4.421875,4.375,1.5274956226348877,663200,0.0,
1984-10-23 00:00:00+00:00,4.34375,4.375,4.3125,1.5165845155715942,997600,0.0,
1984-10-24 00:00:00+00:00,4.328125,4.4375,4.328125,1.5329513549804688,234400,0.0,
1984-10-25 00:00:00+00:00,4.375,4.390625,4.328125,1.5165845155715942,1270400,0.0,
1984-10-26 00:00:00+00:00,4.3125,4.34375,4.234375,1.4947632551193235,825600,0.0,
1984-10-29 00:00:00+00:00,4.265625,4.28125,4.25,1.4838526248931885,343200,0.0,
1984-10-30 00:00:00+00:00,4.25,4.359375,4.21875,1.511129379272461,420000,0.0,
1984-10-31 00:00:00+00:00,4.28125,4.3125,4.28125,1.5002193450927734,791200,0.0,
1984-11-01 00:00:00+00:00,4.125,4.15625,4.09375,1.4402096271514893,859200,0.0,
1984-11-02 00:00:00+00:00,4.078125,4.171875,4.0625,1.4616098403930664,1601600,0.045,
1984-11-05 00:00:00+00:00,4.125,4.203125,4.109375,1.4836713075637815,407200,0.0,
1984-11-06 00:00:00+00:00,4.21875,4.296875,4.21875,1.5167648792266846,916000,0.0,
1984-11-07 00:00:00+00:00,4.28125,4.296875,4.234375,1.5112494230270386,539200,0.0,
1984-11-08 00:00:00+00:00,4.28125,4.296875,4.25,1.5112494230270386,999200,0.0,
1984-11-09 00:00:00+00:00,4.296875,4.3125,4.234375,1.5112494230270386,480000,0.0,
1984-11-12 00:00:00+00:00,4.265625,4.3125,4.265625,1.5167648792266846,361600,0.0,
1984-11-13 00:00:00+00:00,4.265625,4.296875,4.234375,1.5112494230270386,615200,0.0,
1984-11-14 00:00:00+00:00,4.265625,4.328125,4.25,1.5222803354263306,357600,0.0,
1984-11-15 00:00:00+00:00,4.3125,4.3125,4.28125,1.5222803354263306,764000,0.0,
1984-11-16 00:00:00+00:00,4.3125,4.359375,4.28125,1.5277955532073977,492000,0.0,
1984-11-19 00:00:00+00:00,4.296875,4.375,4.28125,1.5222803354263306,768000,0.0,
1984-11-20 00:00:00+00:00,4.265625,4.296875,4.21875,1.5002193450927734,313600,0.0,
1984-11-21 00:00:00+00:00,4.28125,4.28125,4.21875,1.5002193450927734,612800,0.0,
1984-11-23 00:00:00+00:00,4.234375,4.28125,4.21875,1.5002193450927734,168000,0.0,
1984-11-26 00:00:00+00:00,4.25,4.25,4.203125,1.4947032928466797,520800,0.0,
1984-11-27 00:00:00+00:00,4.203125,4.234375,4.171875,1.4836713075637815,790400,0.0,
1984-11-28 00:00:00+00:00,4.1875,4.1875,4.125,1.4616098403930664,481600,0.0,
1984-11-29 00:00:00+00:00,4.109375,4.125,4.03125,1.4395478963851929,733600,0.0,
1984-11-30 00:00:00+00:00,4.125,4.1875,4.078125,1.4505794048309326,350400,0.0,
1984-12-03 00:00:00+00:00,4.078125,4.125,4.0625,1.4395478963851929,244800,0.0,
1984-12-04 00:00:00+00:00,4.078125,4.1875,4.078125,1.467124581336975,598400,0.0,
1984-12-05 00:00:00+00:00,4.125,4.125,4.0625,1.4450634717941284,287200,0.0,
1984-12-06 00:00:00+00:00,4.09375,4.171875,4.078125,1.4616098403930664,384800,0.0,
1984-12-07 00:00:00+00:00,4.09375,4.140625,4.09375,1.4560946226119995,342400,0.0,
1984-12-10 00:00:00+00:00,4.125,4.171875,4.125,1.4616098403930664,331200,0.0,
1984-12-11 00:00:00+00:00,4.125,4.1875,4.125,1.4616098403930664,416000,0.0,
1984-12-12 00:00:00+00:00,4.125,4.15625,4.125,1.4616098403930664,872800,0.0,
1984-12-13 00:00:00+00:00,4.125,4.15625,4.09375,1.4505794048309326,420000,0.0,
1984-12-14 00:00:00+00:00,4.078125,4.125,4.0625,1.4450634717941284,412000,0.0,
1984-12-17 00:00:00+00:00,4.125,4.125,4.0,1.434032678604126,1825600,0.0,
1984-12-18 00:00:00+00:00,4.09375,4.171875,4.09375,1.4726412296295166,884000,0.0,
1984-12-19 00:00:00+00:00,4.15625,4.21875,4.15625,1.467124581336975,755200,0.0,
1984-12-20 00:00:00+00:00,4.203125,4.21875,4.125,1.4560946226119995,779200,0.0,
1984-12-21 00:00:00+00:00,4.09375,4.15625,3.9375,1.4285163879394531,1142400,0.0,
1984-12-24 00:00:00+00:00,4.078125,4.125,4.046875,1.4505794048309326,260800,0.0,
1984-12-26 00:00:00+00:00,4.109375,4.109375,4.03125,1.4285163879394531,103200,0.0,
1984-12-27 00:00:00+00:00,4.078125,4.09375,4.046875,1.434032678604126,1440800,0.0,
1984-12-28 00:00:00+00:00,4.03125,4.0625,4.0,1.4285163879394531,319200,0.0,
1984-12-31 00:00:00+00:00,4.078125,4.171875,4.046875,1.4505794048309326,479200,0.0,
1985-01-02 00:00:00+00:00,4.109375,4.203125,4.109375,1.467124581336975,910400,0.0,
1985-01-03 00:00:00+00:00,4.15625,4.171875,4.125,1.467124581336975,364800,0.0,
1985-01-04 00:00:00+00:00,4.140625,4.171875,4.125,1.4560946226119995,332800,0.0,
1985-01-07 00:00:00+00:00,4.171875,4.21875,4.140625,1.4726412296295166,1047200,0.0,
1985-01-08 00:00:00+00:00,4.171875,4.203125,4.15625,1.478156566619873,320800,0.0,
1985-01-09 00:00:00+00:00,4.21875,4.21875,4.1875,1.4891880750656128,337600,0.0,
1985-01-10 00:00:00+00:00,4.21875,4.296875,4.203125,1.5167648792266846,1797600,0.0,
1985-01-11 00:00:00+00:00,4.296875,4.3125,4.234375,1.5112494230270386,1031200,0.0,
1985-01-14 00:00:00+00:00,4.25,4.328125,4.25,1.5277955532073977,2920800,0.0,
1985-01-15 00:00:00+00:00,4.328125,4.4375,4.296875,1.555373191833496,5229600,0.0,
1985-01-16 00:00:00+00:00,4.5,4.5625,4.40625,1.5939819812774658,13840000,0.0,
1985-01-17 00:00:00+00:00,4.515625,4.515625,4.484375,1.5884664058685305,1127200,0.0,
1985-01-18 00:00:00+00:00,4.53125,4.578125,4.515625,1.6050134897232056,2415200,0.0,
1985-01-21 00:00:00+00:00,4.53125,4.71875,4.53125,1.665684700012207,1831200,0.0,
1985-01-22 00:00:00+00:00,4.734375,4.859375,4.71875,1.671200156211853,2558400,0.0,
1985-01-23 00:00:00+00:00,4.75,4.796875,4.71875,1.6822293996810913,644800,0.0,
1985-01-24 00:00:00+00:00,4.734375,4.796875,4.71875,1.671200156211853,940800,0.0,
1985-01-25 00:00:00+00:00,4.71875,4.921875,4.71875,1.7373861074447632,966400,0.0,
1985-01-28 00:00:00+00:00,4.875,5.0,4.859375,1.764962673187256,801600,0.0,
1985-01-29 00:00:00+00:00,4.921875,4.96875,4.875,1.753931999206543,579200,0.0,
1985-01-30 00:00:00+00:00,4.984375,4.984375,4.890625,1.753931999206543,1524000,0.0,
1985-01-31 00:00:00+00:00,4.875,4.90625,4.78125,1.709807276725769,620800,0.0,
1985-02-01 00:00:00+00:00,4.8125,4.84375,4.78125,1.687746524810791,423200,0.0,
1985-02-04 00:00:00+00:00,4.765625,4.828125,4.765625,1.698776364326477,1716000,0.0,
1985-02-05 00:00:00+00:00,4.8125,4.828125,4.75,1.687746524810791,636800,0.0,
1985-02-06 00:00:00+00:00,4.765625,4.8125,4.65625,1.6601691246032717,1779200,0.0,
1985-02-07 00:00:00+00:00,4.703125,4.78125,4.6875,1.687746524810791,568000,0.0,
1985-02-08 00:00:00+00:00,4.78125,4.859375,4.75,1.7153236865997314,959200,0.0,
1985-02-11 00:00:00+00:00,4.8125,4.8125,4.78125,1.71086585521698,571200,0.05,
1985-02-12 00:00:00+00:00,4.765625,4.796875,4.71875,1.6885738372802734,586400,0.0,
1985-02-13 00:00:00+00:00,4.71875,4.75,4.6875,1.6885738372802734,432000,0.0,
1985-02-14 00:00:00+00:00,4.734375,4.734375,4.65625,1.6718542575836182,1396800,0.0,
1985-02-15 00:00:00+00:00,4.65625,4.65625,4.625,1.649563550949097,1879200,0.0,
1985-02-19 00:00:00+00:00,4.6875,4.6875,4.609375,1.643990397453308,924800,0.0,
1985-02-20 00:00:00+00:00,4.609375,4.625,4.578125,1.6384189128875732,1586400,0.0,
1985-02-21 00:00:00+00:00,4.59375,4.59375,4.546875,1.6328448057174685,1268000,0.0,
1985-02-22 00:00:00+00:00,4.5625,4.609375,4.546875,1.6384189128875732,1045600,0.0,
1985-02-25 00:00:00+00:00,4.609375,4.609375,4.609375,1.643990397453308,356800,0.0,
1985-02-26 00:00:00+00:00,4.609375,4.65625,4.59375,1.6551369428634644,665600,0.0,
1985-02-27 00:00:00+00:00,4.625,4.6875,4.625,1.660709261894226,451200,0.0,
1985-02-28 00:00:00+00:00,4.6875,4.71875,4.671875,1.683001160621643,763200,0.0,
1985-03-01 00:00:00+00:00,4.75,4.859375,4.71875,1.7220110893249512,774400,0.0,
1985-03-04 00:00:00+00:00,4.796875,4.8125,4.734375,1.6997188329696655,907200,0.0,
1985-03-05 00:00:00+00:00,4.796875,4.84375,4.71875,1.694145679473877,940000,0.0,
1985-03-06 00:00:00+00:00,4.75,4.859375,4.75,1.7164379358291626,1347200,0.0,
1985-03-07 00:00:00+00:00,4.78125,4.890625,4.765625,1.7220110893249512,678400,0.0,
1985-03-08 00:00:00+00:00,4.8125,4.90625,4.8125,1.749875783920288,493600,0.0,
1985-03-11 00:00:00+00:00,4.875,4.953125,4.859375,1.7387303113937378,1016000,0.0,
1985-03-12 00:00:00+00:00,4.84375,4.875,4.6875,1.694145679473877,862400,0.0,
1985-03-13 00:00:00+00:00,4.71875,4.796875,4.6875,1.6774283647537231,280800,0.0,
1985-03-14 00:00:00+00:00,4.6875,4.8125,4.65625,1.71086585521698,569600,0.0,
1985-03-15 00:00:00+00:00,4.765625,4.8125,4.625,1.649563550949097,582400,0.0,
1985-03-18 00:00:00+00:00,4.625,4.703125,4.625,1.666281819343567,464000,0.0,
1985-03-19 00:00:00+00:00,4.640625,4.796875,4.640625,1.694145679473877,392800,0.0,
1985-03-20 00:00:00+00:00,4.71875,4.71875,4.65625,1.6718542575836182,212800,0.0,
1985-03-21 00:00:00+00:00,4.65625,4.703125,4.625,1.666281819343567,334400,0.0,
1985-03-22 00:00:00+00:00,4.6875,4.734375,4.65625,1.6774283647537231,413600,0.0,
1985-03-25 00:00:00+00:00,4.703125,4.734375,4.65625,1.6774283647537231,211200,0.0,
1985-03-26 00:00:00+00:00,4.71875,4.78125,4.6875,1.683001160621643,472000,0.0,
1985-03-27 00:00:00+00:00,4.734375,4.75,4.703125,1.6885738372802734,250400,0.0,
1985-03-28 00:00:00+00:00,4.734375,4.734375,4.640625,1.666281819343567,610400,0.0,
1985-03-29 00:00:00+00:00,4.703125,4.703125,4.625,1.660709261894226,410400,0.0,
1985-04-01 00:00:00+00:00,4.671875,4.703125,4.65625,1.6718542575836182,460800,0.0,
1985-04-02 00:00:00+00:00,4.703125,4.71875,4.671875,1.6774283647537231,448000,0.0,
1985-04-03 00:00:00+00:00,4.671875,4.75,4.671875,1.694145679473877,388000,0.0,
1985-04-04 00:00:00+00:00,4.703125,4.75,4.703125,1.6885738372802734,434400,0.0,
1985-04-08 00:00:00+00:00,4.734375,4.734375,4.703125,1.6885738372802734,388000,0.0,
1985-04-09 00:00:00+00:00,4.6875,4.71875,4.6875,1.683001160621643,454400,0.0,
1985-04-10 00:00:00+00:00,4.78125,4.78125,4.65625,1.6718542575836182,894400,0.0,
1985-04-11 00:00:00+00:00,4.703125,4.71875,4.671875,1.6718542575836182,643200,0.0,
1985-04-12 00:00:00+00:00,4.65625,4.6875,4.625,1.660709261894226,1068800,0.0,
1985-04-15 00:00:00+00:00,4.625,4.6875,4.625,1.6718542575836182,189600,0.0,
1985-04-16 00:00:00+00:00,4.640625,4.671875,4.578125,1.649563550949097,768800,0.0,
1985-04-17 00:00:00+00:00,4.5625,4.578125,4.421875,1.599409103393555,2160800,0.0,
1985-04-18 00:00:00+00:00,4.40625,4.4375,4.390625,1.5771164894104004,640800,0.0,
1985-04-19 00:00:00+00:00,4.4375,4.453125,4.390625,1.5826891660690308,615200,0.0,
1985-04-22 00:00:00+00:00,4.40625,4.40625,4.34375,1.5715430974960327,780000,0.0,
1985-04-23 00:00:00+00:00,4.34375,4.453125,4.34375,1.588262677192688,564000,0.0,
1985-04-24 00:00:00+00:00,4.390625,4.453125,4.375,1.5659708976745603,4750400,0.0,
1985-04-25 00:00:00+00:00,4.4375,4.4375,4.34375,1.5826891660690308,649600,0.0,
1985-04-26 00:00:00+00:00,4.40625,4.4375,4.390625,1.5771164894104004,842400,0.0,
1985-04-29 00:00:00+00:00,4.421875,4.421875,4.375,1.5659708976745603,504000,0.0,
1985-04-30 00:00:00+00:00,4.359375,4.375,4.34375,1.554824948310852,612800,0.0,
1985-05-01 00:00:00+00:00,4.359375,4.40625,4.34375,1.54925274848938,2526400,0.0,
1985-05-02 00:00:00+00:00,4.328125,4.359375,4.3125,1.554824948310852,977600,0.0,
1985-05-03 00:00:00+00:00,4.359375,4.40625,4.34375,1.5659708976745603,497600,0.0,
1985-05-06 00:00:00+00:00,4.359375,4.375,4.3125,1.5558245182037354,297600,0.05,
1985-05-07 00:00:00+00:00,4.34375,4.375,4.3125,1.5783730745315552,423200,0.0,
1985-05-08 00:00:00+00:00,4.375,4.375,4.328125,1.5670980215072632,1213600,0.0,
1985-05-09 00:00:00+00:00,4.359375,4.40625,4.359375,1.5896453857421875,549600,0.0,
1985-05-10 00:00:00+00:00,4.421875,4.53125,4.40625,1.6291050910949707,1000000,0.0,
1985-05-13 00:00:00+00:00,4.546875,4.546875,4.46875,1.6234685182571411,528000,0.0,
1985-05-14 00:00:00+00:00,4.53125,4.625,4.53125,1.6572916507720947,852000,0.0,
1985-05-15 00:00:00+00:00,4.609375,4.6875,4.59375,1.674201488494873,1112000,0.0,
1985-05-16 00:00:00+00:00,4.671875,4.75,4.65625,1.7136609554290771,509600,0.0,
1985-05-17 00:00:00+00:00,4.78125,4.859375,4.78125,1.7474828958511353,1585600,0.0,
1985-05-20 00:00:00+00:00,4.890625,4.96875,4.875,1.781304955482483,1227200,0.0,
1985-05-21 00:00:00+00:00,4.9375,4.96875,4.90625,1.7869430780410769,665600,0.0,
1985-05-22 00:00:00+00:00,4.9375,4.96875,4.921875,1.781304955482483,1565600,0.0,
1985-05-23 00:00:00+00:00,4.921875,4.953125,4.875,1.7869430780410769,925600,0.0,
1985-05-24 00:00:00+00:00,4.96875,4.984375,4.890625,1.7756696939468384,918400,0.0,
1985-05-28 00:00:00+00:00,4.90625,4.921875,4.828125,1.7531211376190186,714400,0.0,
1985-05-29 00:00:00+00:00,4.84375,4.90625,4.828125,1.7587578296661377,803200,0.0,
1985-05-30 00:00:00+00:00,4.890625,4.90625,4.84375,1.7587578296661377,470400,0.0,
1985-05-31 00:00:00+00:00,4.875,4.90625,4.84375,1.764394998550415,618400,0.0,
1985-06-03 00:00:00+00:00,4.859375,4.890625,4.796875,1.7362098693847656,446400,0.0,
1985-06-04 00:00:00+00:00,4.78125,4.96875,4.78125,1.7756696939468384,4740800,0.0,
1985-06-05 00:00:00+00:00,4.953125,5.109375,4.9375,1.8376754522323608,2116000,0.0,
1985-06-06 00:00:00+00:00,5.09375,5.109375,5.03125,1.843313217163086,1146400,0.0,
1985-06-07 00:00:00+00:00,5.09375,5.1875,5.09375,1.8602241277694704,784000,0.0,
1985-06-10 00:00:00+00:00,5.15625,5.15625,5.125,1.8489506244659424,580800,0.0,
1985-06-11 00:00:00+00:00,5.140625,5.140625,5.09375,1.843313217163086,719200,0.0,
1985-06-12 00:00:00+00:00,5.109375,5.125,5.078125,1.8376754522323608,701600,0.0,
1985-06-13 00:00:00+00:00,5.125,5.15625,5.078125,1.8376754522323608,1678400,0.0,
1985-06-14 00:00:00+00:00,5.140625,5.234375,5.125,1.88277280330658,594400,0.0,
1985-06-17 00:00:00+00:00,5.203125,5.25,5.1875,1.8940459489822388,363200,0.0,
1985-06-18 00:00:00+00:00,5.21875,5.28125,5.171875,1.87149977684021,696800,0.0,
1985-06-19 00:00:00+00:00,5.203125,5.28125,5.15625,1.8940459489822388,1571200,0.0,
1985-06-20 00:00:00+00:00,5.21875,5.28125,5.21875,1.9053219556808472,241600,0.0,
1985-06-21 00:00:00+00:00,5.25,5.296875,5.25,1.9109578132629397,808000,0.0,
1985-06-24 00:00:00+00:00,5.265625,5.28125,5.21875,1.899682641029358,1336800,0.0,
1985-06-25 00:00:00+00:00,5.25,5.359375,5.1875,1.8771361112594604,1568000,0.0,
1985-06-26 00:00:00+00:00,5.21875,5.28125,5.1875,1.8940459489822388,676000,0.0,
1985-06-27 00:00:00+00:00,5.25,5.296875,5.21875,1.88277280330658,648000,0.0,
1985-06-28 00:00:00+00:00,5.25,5.265625,5.203125,1.8884098529815676,646400,0.0,
1985-07-01 00:00:00+00:00,5.234375,5.296875,5.203125,1.9053219556808472,485600,0.0,
1985-07-02 00:00:00+00:00,5.265625,5.3125,5.25,1.9165949821472168,669600,0.0,
1985-07-03 00:00:00+00:00,5.3125,5.4375,5.28125,1.9504164457321167,1062400,0.0,
1985-07-05 00:00:00+00:00,5.40625,5.421875,5.390625,1.9560539722442627,444000,0.0,
1985-07-08 00:00:00+00:00,5.390625,5.421875,5.390625,1.9560539722442627,688000,0.0,
1985-07-09 00:00:00+00:00,5.421875,5.421875,5.328125,1.9447814226150515,791200,0.0,
1985-07-10 00:00:00+00:00,5.375,5.40625,5.34375,1.9391433000564573,2248800,0.0,
1985-07-11 00:00:00+00:00,5.328125,5.390625,5.328125,1.9447814226150515,1067200,0.0,
1985-07-12 00:00:00+00:00,5.421875,5.453125,5.390625,1.967328667640686,568800,0.0,
1985-07-15 00:00:00+00:00,5.46875,5.5,5.4375,1.967328667640686,708800,0.0,
1985-07-16 00:00:00+00:00,5.453125,5.53125,5.421875,1.984240174293518,656800,0.0,
1985-07-17 00:00:00+00:00,5.625,5.671875,5.59375,2.0462470054626465,2698400,0.0,
1985-07-18 00:00:00+00:00,5.671875,5.796875,5.625,2.085705518722534,1896000,0.0,
1985-07-19 00:00:00+00:00,5.75,5.90625,5.734375,2.1195285320281982,1309600,0.0,
1985-07-22 00:00:00+00:00,5.84375,5.859375,5.71875,2.080069303512573,429600,0.0,
1985-07-23 00:00:00+00:00,5.796875,5.8125,5.59375,2.029335021972656,941600,0.0,
1985-07-24 00:00:00+00:00,5.65625,5.65625,5.5,1.9955142736434937,410400,0.0,
1985-07-25 00:00:00+00:00,5.53125,5.5625,5.5,2.006787776947021,535200,0.0,
1985-07-26 00:00:00+00:00,5.546875,5.734375,5.546875,2.063159227371216,1002400,0.0,
1985-07-29 00:00:00+00:00,5.734375,5.734375,5.59375,2.0349721908569336,928000,0.0,
1985-07-30 00:00:00+00:00,5.625,5.65625,5.59375,2.0349721908569336,361600,0.0,
1985-07-31 00:00:00+00:00,5.640625,5.6875,5.625,2.0462470054626465,216800,0.0,
1985-08-01 00:00:00+00:00,5.671875,5.6875,5.625,2.04060959815979,372800,0.0,
1985-08-02 00:00:00+00:00,5.671875,5.734375,5.640625,2.0518839359283447,945600,0.0,
1985-08-05 00:00:00+00:00,5.6875,5.6875,5.640625,2.04060959815979,348800,0.0,
1985-08-06 00:00:00+00:00,5.5,5.65625,5.46875,2.001936435699463,2713600,0.05,
1985-08-07 00:00:00+00:00,5.5,5.53125,5.40625,2.001936435699463,1204000,0.0,
1985-08-08 00:00:00+00:00,5.53125,5.6875,5.5,2.070184230804444,1320000,0.0,
1985-08-09 00:00:00+00:00,5.65625,5.703125,5.609375,2.0531229972839355,725600,0.0,
1985-08-12 00:00:00+00:00,5.609375,5.65625,5.609375,2.0474343299865723,644000,0.0,
1985-08-13 00:00:00+00:00,5.640625,5.6875,5.625,2.0531229972839355,587200,0.0,
1985-08-14 00:00:00+00:00,5.625,5.6875,5.625,2.0588085651397705,302400,0.0,
1985-08-15 00:00:00+00:00,5.671875,5.671875,5.53125,2.01331090927124,822400,0.0,
1985-08-16 00:00:00+00:00,5.5,5.53125,5.375,1.973500370979309,678400,0.0,
1985-08-19 00:00:00+00:00,5.421875,5.484375,5.421875,1.9848737716674805,441600,0.0,
1985-08-20 00:00:00+00:00,5.484375,5.578125,5.453125,2.01899790763855,385600,0.0,
1985-08-21 00:00:00+00:00,5.53125,5.625,5.453125,2.02468490600586,1249600,0.0,
1985-08-22 00:00:00+00:00,5.59375,5.59375,5.484375,2.001936435699463,1018400,0.0,
1985-08-23 00:00:00+00:00,5.46875,5.5625,5.4375,1.996248722076416,458400,0.0,
1985-08-26 00:00:00+00:00,5.484375,5.546875,5.484375,2.001936435699463,340800,0.0,
1985-08-27 00:00:00+00:00,5.484375,5.5625,5.484375,2.02468490600586,152800,0.0,
1985-08-28 00:00:00+00:00,5.5625,5.578125,5.46875,2.001936435699463,448800,0.0,
1985-08-29 00:00:00+00:00,5.5,5.546875,5.484375,2.01331090927124,355200,0.0,
1985-08-30 00:00:00+00:00,5.53125,5.546875,5.484375,2.01331090927124,737600,0.0,
1985-09-03 00:00:00+00:00,5.546875,5.6875,5.515625,2.070184230804444,384000,0.0,
1985-09-04 00:00:00+00:00,5.6875,5.734375,5.625,2.0644962787628174,371200,0.0,
1985-09-05 00:00:00+00:00,5.6875,5.6875,5.5625,2.0303735733032227,484000,0.0,
1985-09-06 00:00:00+00:00,5.5625,5.59375,5.484375,2.01899790763855,406400,0.0,
1985-09-09 00:00:00+00:00,5.5625,5.5625,5.5,2.001936435699463,142400,0.0,
1985-09-10 00:00:00+00:00,5.46875,5.515625,5.46875,2.001936435699463,272800,0.0,
1985-09-11 00:00:00+00:00,5.5,5.5,5.375,1.9621262550354004,1280000,0.0,
1985-09-12 00:00:00+00:00,5.375,5.4375,5.34375,1.9564381837844849,597600,0.0,
1985-09-13 00:00:00+00:00,5.375,5.4375,5.375,1.973500370979309,556800,0.0,
1985-09-16 00:00:00+00:00,5.453125,5.53125,5.40625,2.0076234340667725,253600,0.0,
1985-09-17 00:00:00+00:00,5.515625,5.625,5.515625,2.041748046875,879200,0.0,
1985-09-18 00:00:00+00:00,5.578125,5.640625,5.484375,1.996248722076416,427200,0.0,
1985-09-19 00:00:00+00:00,5.515625,5.515625,5.453125,1.996248722076416,568000,0.0,
1985-09-20 00:00:00+00:00,5.453125,5.53125,5.421875,1.990561604499817,589600,0.0,
1985-09-23 00:00:00+00:00,5.53125,5.59375,5.53125,2.036060333251953,484000,0.0,
1985-09-24 00:00:00+00:00,5.59375,5.65625,5.578125,2.041748046875,599200,0.0,
1985-09-25 00:00:00+00:00,5.546875,5.609375,5.546875,2.041748046875,301600,0.0,
1985-09-26 00:00:00+00:00,5.625,5.625,5.53125,2.036060333251953,360000,0.0,
1985-09-30 00:00:00+00:00,5.59375,5.625,5.578125,2.0474343299865723,349600,0.0,
1985-10-01 00:00:00+00:00,5.609375,5.703125,5.59375,2.0758719444274902,324000,0.0,
1985-10-02 00:00:00+00:00,5.71875,5.796875,5.59375,2.036060333251953,1103200,0.0,
1985-10-03 00:00:00+00:00,5.578125,5.6875,5.578125,2.041748046875,260800,0.0,
1985-10-04 00:00:00+00:00,5.609375,5.609375,5.546875,2.0303735733032227,794400,0.0,
1985-10-07 00:00:00+00:00,5.5625,5.5625,5.390625,1.967811584472656,848800,0.0,
1985-10-08 00:00:00+00:00,5.4375,5.484375,5.40625,1.9848737716674805,253600,0.0,
1985-10-09 00:00:00+00:00,5.421875,5.46875,5.40625,1.9791868925094604,2060000,0.0,
1985-10-10 00:00:00+00:00,5.421875,5.453125,5.421875,1.9791868925094604,260000,0.0,
1985-10-11 00:00:00+00:00,5.40625,5.46875,5.40625,1.990561604499817,1391200,0.0,
1985-10-14 00:00:00+00:00,5.46875,5.53125,5.453125,2.01331090927124,680000,0.0,
1985-10-15 00:00:00+00:00,5.5625,5.59375,5.53125,2.036060333251953,476800,0.0,
1985-10-16 00:00:00+00:00,5.578125,5.671875,5.578125,2.0644962787628174,1112000,0.0,
1985-10-17 00:00:00+00:00,5.640625,5.703125,5.640625,2.070184230804444,757600,0.0,
1985-10-18 00:00:00+00:00,5.671875,5.703125,5.5625,2.0303735733032227,757600,0.0,
1985-10-21 00:00:00+00:00,5.59375,5.734375,5.5625,2.0588085651397705,1012800,0.0,
1985-10-22 00:00:00+00:00,5.671875,5.71875,5.65625,2.0758719444274902,692000,0.0,
1985-10-23 00:00:00+00:00,5.703125,5.703125,5.59375,2.0644962787628174,376800,0.0,
1985-10-24 00:00:00+00:00,5.65625,5.671875,5.59375,2.0474343299865723,386400,0.0,
1985-10-25 00:00:00+00:00,5.59375,5.609375,5.515625,2.041748046875,182400,0.0,
1985-10-28 00:00:00+00:00,5.609375,5.625,5.546875,2.041748046875,180000,0.0,
1985-10-29 00:00:00+00:00,5.609375,5.65625,5.609375,2.0588085651397705,212800,0.0,
1985-10-30 00:00:00+00:00,5.625,5.671875,5.625,2.0644962787628174,640000,0.0,
1985-10-31 00:00:00+00:00,5.65625,5.6875,5.65625,2.070184230804444,524000,0.0,
1985-11-01 00:00:00+00:00,5.65625,5.890625,5.65625,2.1441197395324707,965600,0.0,
1985-11-04 00:00:00+00:00,5.90625,6.0,5.859375,2.1498067378997803,1089600,0.0,
1985-11-05 00:00:00+00:00,6.015625,6.015625,5.8125,2.21019983291626,884000,0.055,
1985-11-06 00:00:00+00:00,6.015625,6.15625,6.015625,2.2216811180114746,1521600,0.0,
1985-11-07 00:00:00+00:00,6.046875,6.15625,6.03125,2.261866569519043,840000,0.0,
1985-11-08 00:00:00+00:00,6.125,6.125,6.046875,2.238903760910034,337600,0.0,
1985-11-11 00:00:00+00:00,6.09375,6.15625,6.03125,2.261866569519043,656800,0.0,
1985-11-12 00:00:00+00:00,6.125,6.25,6.125,2.290570974349976,1264800,0.0,
1985-11-13 00:00:00+00:00,6.25,6.25,6.140625,2.256126642227173,449600,0.0,
1985-11-14 00:00:00+00:00,6.125,6.234375,6.078125,2.267606496810913,614400,0.0,
1985-11-15 00:00:00+00:00,6.15625,6.3125,6.15625,2.2790889739990234,1276800,0.0,
1985-11-18 00:00:00+00:00,6.21875,6.296875,6.140625,2.313533067703247,1349600,0.0,
1985-11-19 00:00:00+00:00,6.375,6.421875,6.34375,2.359459638595581,854400,0.0,
1985-11-20 00:00:00+00:00,6.375,6.40625,6.34375,2.3422367572784424,290400,0.0,
1985-11-21 00:00:00+00:00,6.375,6.40625,6.34375,2.3422367572784424,668800,0.0,
1985-11-22 00:00:00+00:00,6.34375,6.375,6.203125,2.284830093383789,374400,0.0,
1985-11-25 00:00:00+00:00,6.3125,6.3125,6.1875,2.302052497863769,424800,0.0,
1985-11-26 00:00:00+00:00,6.234375,6.25,6.0625,2.261866569519043,1265600,0.0,
1985-11-27 00:00:00+00:00,6.1875,6.3125,6.1875,2.307792901992798,1169600,0.0,
1985-11-29 00:00:00+00:00,6.25,6.3125,6.203125,2.290570974349976,924800,0.0,
1985-12-02 00:00:00+00:00,6.203125,6.21875,6.125,2.2790889739990234,472800,0.0,
1985-12-03 00:00:00+00:00,6.21875,6.25,6.171875,2.273348093032837,650400,0.0,
1985-12-04 00:00:00+00:00,6.0625,6.1875,6.03125,2.267606496810913,2110400,0.0,
1985-12-05 00:00:00+00:00,6.15625,6.1875,5.9375,2.18149471282959,1506400,0.0,
1985-12-06 00:00:00+00:00,5.90625,5.90625,5.5625,2.15279221534729,1225600,0.0,
1985-12-09 00:00:00+00:00,5.828125,6.078125,5.828125,2.192977905273437,827200,0.0,
1985-12-10 00:00:00+00:00,5.9375,6.03125,5.9375,2.1872355937957764,409600,0.0,
